"agua PANI-PSS (- conc).spc"
"Wavelength nm.","Abs."
250.0,2.85514
251.0,2.85845
252.0,2.84075
253.0,2.84746
254.0,2.86021
255.0,2.90407
256.0,2.91526
257.0,2.98891
258.0,3.01057
259.0,3.07851
260.0,3.12243
261.0,3.22120
262.0,3.25941
263.0,3.37346
264.0,3.47955
265.0,3.46502
266.0,3.58486
267.0,3.61958
268.0,3.63833
269.0,3.73105
270.0,3.83251
271.0,3.75876
272.0,3.78521
273.0,3.64436
274.0,3.60226
275.0,3.52307
276.0,3.53972
277.0,3.45685
278.0,3.45551
279.0,3.23024
280.0,2.96178
281.0,2.66963
282.0,2.43479
283.0,2.23231
284.0,2.08988
285.0,1.99527
286.0,1.92441
287.0,1.88476
288.0,1.85886
289.0,1.83321
290.0,1.82203
291.0,1.80524
292.0,1.80667
293.0,1.80011
294.0,1.79477
295.0,1.79378
296.0,1.79270
297.0,1.78983
298.0,1.78930
299.0,1.79266
300.0,1.78962
301.0,1.79186
302.0,1.79298
303.0,1.79430
304.0,1.79471
305.0,1.80023
306.0,1.80655
307.0,1.81281
308.0,1.81305
309.0,1.81974
310.0,1.82605
311.0,1.82868
312.0,1.83129
313.0,1.84491
314.0,1.85342
315.0,1.85924
316.0,1.87034
317.0,1.88102
318.0,1.88832
319.0,1.89440
320.0,1.90493
321.0,1.91518
322.0,1.92266
323.0,1.93960
324.0,1.95040
325.0,1.96026
326.0,1.97432
327.0,1.98794
328.0,1.99431
329.0,2.00561
330.0,2.01556
331.0,2.03105
332.0,2.03980
333.0,2.05323
334.0,2.06576
335.0,2.07789
336.0,2.08525
337.0,2.09925
338.0,2.10737
339.0,2.11962
340.0,2.12577
341.0,2.13684
342.0,2.14806
343.0,2.15074
344.0,2.15280
345.0,2.16132
346.0,2.16966
347.0,2.17447
348.0,2.17585
349.0,2.18361
350.0,2.19426
351.0,2.18814
352.0,2.19618
353.0,2.20113
354.0,2.19608
355.0,2.20069
356.0,2.20286
357.0,2.20097
358.0,2.19939
359.0,2.20472
360.0,2.20282
361.0,2.20239
362.0,2.19954
363.0,2.19847
364.0,2.19837
365.0,2.19940
366.0,2.19775
367.0,2.19257
368.0,2.19661
369.0,2.20063
370.0,2.19152
371.0,2.19126
372.0,2.18785
373.0,2.19334
374.0,2.19160
375.0,2.19730
376.0,2.18425
377.0,2.18215
378.0,2.18255
379.0,2.18152
380.0,2.18323
381.0,2.18286
382.0,2.18152
383.0,2.18212
384.0,2.17385
385.0,2.17387
386.0,2.16876
387.0,2.17088
388.0,2.16685
389.0,2.17344
390.0,2.17422
391.0,2.16154
392.0,2.16972
393.0,2.16637
394.0,2.16529
395.0,2.16549
396.0,2.16728
397.0,2.16365
398.0,2.16315
399.0,2.16452
400.0,2.16221
401.0,2.16427
402.0,2.15893
403.0,2.15666
404.0,2.15257
405.0,2.15385
406.0,2.15670
407.0,2.15569
408.0,2.15594
409.0,2.15474
410.0,2.14848
411.0,2.15033
412.0,2.15131
413.0,2.14954
414.0,2.14746
415.0,2.14659
416.0,2.14104
417.0,2.13972
418.0,2.13650
419.0,2.13631
420.0,2.13439
421.0,2.12905
422.0,2.12691
423.0,2.11393
424.0,2.11579
425.0,2.11281
426.0,2.10814
427.0,2.10360
428.0,2.09251
429.0,2.09193
430.0,2.07634
431.0,2.06787
432.0,2.05416
433.0,2.04037
434.0,2.02994
435.0,2.01026
436.0,1.99205
437.0,1.97346
438.0,1.94940
439.0,1.92640
440.0,1.89720
441.0,1.87031
442.0,1.84136
443.0,1.81260
444.0,1.77809
445.0,1.74575
446.0,1.71039
447.0,1.67819
448.0,1.64203
449.0,1.60702
450.0,1.57023
451.0,1.53576
452.0,1.49818
453.0,1.46052
454.0,1.42294
455.0,1.38777
456.0,1.34997
457.0,1.31328
458.0,1.27628
459.0,1.23945
460.0,1.20415
461.0,1.16731
462.0,1.13317
463.0,1.09947
464.0,1.06826
465.0,1.03706
466.0,1.00755
467.0,0.97991
468.0,0.95353
469.0,0.92850
470.0,0.90591
471.0,0.88358
472.0,0.86339
473.0,0.84508
474.0,0.82747
475.0,0.81009
476.0,0.79592
477.0,0.78216
478.0,0.76802
479.0,0.75612
480.0,0.74411
481.0,0.73367
482.0,0.72279
483.0,0.71400
484.0,0.70617
485.0,0.69770
486.0,0.68958
487.0,0.68265
488.0,0.67600
489.0,0.66968
490.0,0.66370
491.0,0.65775
492.0,0.65237
493.0,0.64690
494.0,0.64232
495.0,0.63740
496.0,0.63374
497.0,0.62959
498.0,0.62511
499.0,0.62152
500.0,0.61778
501.0,0.61424
502.0,0.61067
503.0,0.60640
504.0,0.60384
505.0,0.60103
506.0,0.59852
507.0,0.59534
508.0,0.59269
509.0,0.59039
510.0,0.58757
511.0,0.58540
512.0,0.58335
513.0,0.58110
514.0,0.57931
515.0,0.57705
516.0,0.57528
517.0,0.57347
518.0,0.57136
519.0,0.57051
520.0,0.56853
521.0,0.56800
522.0,0.56653
523.0,0.56528
524.0,0.56423
525.0,0.56244
526.0,0.56252
527.0,0.56043
528.0,0.56028
529.0,0.55935
530.0,0.55904
531.0,0.55802
532.0,0.55804
533.0,0.55724
534.0,0.55669
535.0,0.55620
536.0,0.55650
537.0,0.55610
538.0,0.55565
539.0,0.55630
540.0,0.55561
541.0,0.55624
542.0,0.55597
543.0,0.55657
544.0,0.55742
545.0,0.55692
546.0,0.55795
547.0,0.55873
548.0,0.55943
549.0,0.56018
550.0,0.56079
551.0,0.56139
552.0,0.56185
553.0,0.56307
554.0,0.56440
555.0,0.56572
556.0,0.56609
557.0,0.56759
558.0,0.56925
559.0,0.57038
560.0,0.57194
561.0,0.57377
562.0,0.57474
563.0,0.57670
564.0,0.57817
565.0,0.57975
566.0,0.58208
567.0,0.58380
568.0,0.58613
569.0,0.58795
570.0,0.58965
571.0,0.59266
572.0,0.59456
573.0,0.59656
574.0,0.59919
575.0,0.60231
576.0,0.60423
577.0,0.60736
578.0,0.60926
579.0,0.61312
580.0,0.61494
581.0,0.61874
582.0,0.62117
583.0,0.62454
584.0,0.62801
585.0,0.63102
586.0,0.63394
587.0,0.63792
588.0,0.64178
589.0,0.64420
590.0,0.64851
591.0,0.65206
592.0,0.65586
593.0,0.65997
594.0,0.66419
595.0,0.66749
596.0,0.67187
597.0,0.67620
598.0,0.68100
599.0,0.68447
600.0,0.69032
601.0,0.69423
602.0,0.69913
603.0,0.70347
604.0,0.70850
605.0,0.71357
606.0,0.71878
607.0,0.72417
608.0,0.72965
609.0,0.73538
610.0,0.74092
611.0,0.74621
612.0,0.75221
613.0,0.75810
614.0,0.76426
615.0,0.76951
616.0,0.77609
617.0,0.78208
618.0,0.78894
619.0,0.79523
620.0,0.80142
621.0,0.80808
622.0,0.81546
623.0,0.82248
624.0,0.82980
625.0,0.83750
626.0,0.84501
627.0,0.85229
628.0,0.86059
629.0,0.86750
630.0,0.87601
631.0,0.88420
632.0,0.89269
633.0,0.90178
634.0,0.91043
635.0,0.91856
636.0,0.92837
637.0,0.93701
638.0,0.94631
639.0,0.95587
640.0,0.96528
641.0,0.97575
642.0,0.98542
643.0,0.99544
644.0,1.00562
645.0,1.01658
646.0,1.02749
647.0,1.03883
648.0,1.05027
649.0,1.06065
650.0,1.07291
651.0,1.08565
652.0,1.09733
653.0,1.11005
654.0,1.12275
655.0,1.13561
656.0,1.14896
657.0,1.16198
658.0,1.17602
659.0,1.18942
660.0,1.20376
661.0,1.21778
662.0,1.23163
663.0,1.24532
664.0,1.26108
665.0,1.27536
666.0,1.28951
667.0,1.30656
668.0,1.32093
669.0,1.33681
670.0,1.35361
671.0,1.37002
672.0,1.38703
673.0,1.40490
674.0,1.42146
675.0,1.43974
676.0,1.45756
677.0,1.47608
678.0,1.49395
679.0,1.51233
680.0,1.53191
681.0,1.55250
682.0,1.57153
683.0,1.59126
684.0,1.61022
685.0,1.63124
686.0,1.65196
687.0,1.67350
688.0,1.69416
689.0,1.71541
690.0,1.73574
691.0,1.76281
692.0,1.78083
693.0,1.80433
694.0,1.82555
695.0,1.84964
696.0,1.87369
697.0,1.89871
698.0,1.92048
699.0,1.94503
700.0,1.97204
701.0,1.99182
702.0,2.01677
703.0,2.04340
704.0,2.07051
705.0,2.09095
706.0,2.12060
707.0,2.14271
708.0,2.17211
709.0,2.19792
710.0,2.21829
711.0,2.24534
712.0,2.26959
713.0,2.28921
714.0,2.31004
715.0,2.34017
716.0,2.37386
717.0,2.39761
718.0,2.41646
719.0,2.43414
720.0,2.46739
721.0,2.49533
722.0,2.52504
723.0,2.55001
724.0,2.57147
725.0,2.59312
726.0,2.62317
727.0,2.64488
728.0,2.66698
729.0,2.69404
730.0,2.71359
731.0,2.74011
732.0,2.75937
733.0,2.78939
734.0,2.80832
735.0,2.82326
736.0,2.85041
737.0,2.84953
738.0,2.89679
739.0,2.91243
740.0,2.94320
741.0,2.95049
742.0,2.95365
743.0,3.00165
744.0,3.00092
745.0,3.01279
746.0,3.03074
747.0,3.04958
748.0,3.06864
749.0,3.09935
750.0,3.09147
751.0,3.13923
752.0,3.15774
753.0,3.14554
754.0,3.13081
755.0,3.17527
756.0,3.17285
757.0,3.19047
758.0,3.19742
759.0,3.23824
760.0,3.22871
761.0,3.22143
762.0,3.20819
763.0,3.26680
764.0,3.24284
765.0,3.27312
766.0,3.27117
767.0,3.31940
768.0,3.24500
769.0,3.34034
770.0,3.25854
771.0,3.35749
772.0,3.28980
773.0,3.33695
774.0,3.36787
775.0,3.25390
776.0,3.41305
777.0,3.30229
778.0,3.34450
779.0,3.26677
780.0,3.34859
781.0,3.30097
782.0,3.32127
783.0,3.35852
784.0,3.35379
785.0,3.34564
786.0,3.31948
787.0,3.31068
788.0,3.29077
789.0,3.33058
790.0,3.31799
791.0,3.31679
792.0,3.29599
793.0,3.31517
794.0,3.33142
795.0,3.30075
796.0,3.30257
797.0,3.25901
798.0,3.33635
799.0,3.25813
800.0,3.26176
801.0,3.27356
802.0,3.30223
803.0,3.26282
804.0,3.27042
805.0,3.23339
806.0,3.25412
807.0,3.26478
808.0,3.20381
809.0,3.19202
810.0,3.21953
811.0,3.19929
812.0,3.18996
813.0,3.14846
814.0,3.17507
815.0,3.15877
816.0,3.17885
817.0,3.16956
818.0,3.14165
819.0,3.14409
820.0,3.13020
821.0,3.14555
822.0,3.10848
823.0,3.09226
824.0,3.09459
825.0,3.08610
826.0,3.06770
827.0,3.05917
828.0,3.07115
829.0,3.04085
830.0,3.03472
831.0,2.92089
832.0,6.00000
833.0,6.00000
834.0,3.20290
835.0,6.00000
836.0,3.16882
837.0,3.18003
838.0,2.90394
839.0,2.75190
840.0,2.93730
841.0,2.84683
842.0,3.07836
843.0,3.82812
844.0,2.51306
845.0,6.00000
846.0,2.84366
847.0,2.76017
848.0,3.04470
849.0,2.69076
850.0,3.79376
