"agua PANI-PSS.spc"
"Wavelength nm.","Abs."
250.0,4.08995
251.0,4.15158
252.0,4.16729
253.0,3.96836
254.0,4.31074
255.0,4.15829
256.0,4.21240
257.0,4.27884
258.0,4.00994
259.0,3.99987
260.0,3.76756
261.0,4.02989
262.0,3.69514
263.0,3.72046
264.0,3.68682
265.0,3.71645
266.0,3.67790
267.0,3.67588
268.0,3.69590
269.0,3.61446
270.0,3.64091
271.0,3.54910
272.0,3.50247
273.0,3.51997
274.0,3.47188
275.0,3.41225
276.0,3.37367
277.0,3.39301
278.0,3.36997
279.0,3.37952
280.0,3.35445
281.0,3.36249
282.0,3.28177
283.0,3.26927
284.0,3.25520
285.0,3.31365
286.0,3.22367
287.0,3.28352
288.0,3.26176
289.0,3.15526
290.0,3.25043
291.0,3.18610
292.0,3.34846
293.0,3.19114
294.0,3.16534
295.0,3.19699
296.0,3.19220
297.0,3.24042
298.0,3.20762
299.0,3.17602
300.0,3.20622
301.0,3.20866
302.0,3.26749
303.0,3.13515
304.0,3.28815
305.0,3.17531
306.0,3.24914
307.0,3.24131
308.0,3.24465
309.0,3.29037
310.0,3.27223
311.0,3.25445
312.0,3.36510
313.0,3.23983
314.0,3.29296
315.0,3.35718
316.0,3.43060
317.0,3.42428
318.0,3.44260
319.0,3.49212
320.0,3.47879
321.0,3.62101
322.0,3.49505
323.0,3.55461
324.0,3.55473
325.0,3.62993
326.0,3.44175
327.0,3.66529
328.0,3.57602
329.0,3.50622
330.0,3.86972
331.0,3.78389
332.0,3.65914
333.0,3.65717
334.0,4.03452
335.0,3.90375
336.0,3.85589
337.0,3.99630
338.0,3.87270
339.0,3.75263
340.0,3.96947
341.0,4.22424
342.0,3.90869
343.0,3.87881
344.0,3.66942
345.0,3.94183
346.0,4.76617
347.0,3.87060
348.0,3.98770
349.0,3.99151
350.0,4.04326
351.0,4.01103
352.0,4.00177
353.0,4.02603
354.0,4.17038
355.0,4.05311
356.0,4.03569
357.0,4.11055
358.0,4.25653
359.0,3.87239
360.0,4.19357
361.0,3.94054
362.0,6.00000
363.0,6.00000
364.0,3.86683
365.0,3.95816
366.0,4.19248
367.0,3.95102
368.0,4.10992
369.0,4.55955
370.0,3.97004
371.0,4.29212
372.0,6.00000
373.0,3.88867
374.0,4.48982
375.0,4.36540
376.0,3.91806
377.0,3.92172
378.0,6.00000
379.0,3.85936
380.0,3.77781
381.0,4.80867
382.0,4.45712
383.0,3.92469
384.0,4.15389
385.0,3.85765
386.0,4.23984
387.0,4.58700
388.0,4.40911
389.0,3.83957
390.0,4.42583
391.0,3.70488
392.0,3.66133
393.0,4.07999
394.0,4.13195
395.0,3.77129
396.0,4.17091
397.0,4.13947
398.0,4.42485
399.0,3.65459
400.0,4.10645
401.0,3.81489
402.0,3.92600
403.0,3.75000
404.0,3.67412
405.0,4.14548
406.0,4.02485
407.0,4.01081
408.0,3.96519
409.0,4.10367
410.0,4.31618
411.0,4.31840
412.0,3.70840
413.0,3.92128
414.0,4.26511
415.0,3.72171
416.0,3.90399
417.0,4.10418
418.0,4.06790
419.0,3.96497
420.0,4.09326
421.0,3.88014
422.0,3.95809
423.0,3.81498
424.0,3.87661
425.0,3.99629
426.0,3.77735
427.0,4.07047
428.0,3.69712
429.0,3.98086
430.0,3.86389
431.0,3.63886
432.0,3.61564
433.0,3.71646
434.0,3.49893
435.0,3.92377
436.0,3.70899
437.0,3.57474
438.0,3.60118
439.0,3.45386
440.0,3.37588
441.0,3.34689
442.0,3.42795
443.0,3.25294
444.0,3.24045
445.0,3.14630
446.0,3.10111
447.0,3.00539
448.0,2.90277
449.0,2.89431
450.0,2.82717
451.0,2.73989
452.0,2.67480
453.0,2.61567
454.0,2.53656
455.0,2.46030
456.0,2.39724
457.0,2.32485
458.0,2.25992
459.0,2.19289
460.0,2.12921
461.0,2.06263
462.0,1.99795
463.0,1.93758
464.0,1.87850
465.0,1.82124
466.0,1.76837
467.0,1.71706
468.0,1.66706
469.0,1.62206
470.0,1.57965
471.0,1.54087
472.0,1.50410
473.0,1.46985
474.0,1.43759
475.0,1.40778
476.0,1.37999
477.0,1.35457
478.0,1.33146
479.0,1.30860
480.0,1.28704
481.0,1.26840
482.0,1.24865
483.0,1.23356
484.0,1.21876
485.0,1.20421
486.0,1.18876
487.0,1.17723
488.0,1.16371
489.0,1.15175
490.0,1.14293
491.0,1.13199
492.0,1.12198
493.0,1.11245
494.0,1.10452
495.0,1.09527
496.0,1.08829
497.0,1.08033
498.0,1.07297
499.0,1.06623
500.0,1.05995
501.0,1.05352
502.0,1.04703
503.0,1.04073
504.0,1.03523
505.0,1.02988
506.0,1.02525
507.0,1.01979
508.0,1.01556
509.0,1.01101
510.0,1.00687
511.0,1.00208
512.0,0.99800
513.0,0.99461
514.0,0.99072
515.0,0.98813
516.0,0.98443
517.0,0.98159
518.0,0.97854
519.0,0.97657
520.0,0.97292
521.0,0.97214
522.0,0.96932
523.0,0.96586
524.0,0.96557
525.0,0.96338
526.0,0.96193
527.0,0.95964
528.0,0.95930
529.0,0.95730
530.0,0.95615
531.0,0.95537
532.0,0.95513
533.0,0.95388
534.0,0.95367
535.0,0.95331
536.0,0.95348
537.0,0.95315
538.0,0.95333
539.0,0.95372
540.0,0.95342
541.0,0.95410
542.0,0.95404
543.0,0.95424
544.0,0.95637
545.0,0.95681
546.0,0.95749
547.0,0.95925
548.0,0.96004
549.0,0.96221
550.0,0.96360
551.0,0.96490
552.0,0.96648
553.0,0.96932
554.0,0.97222
555.0,0.97358
556.0,0.97538
557.0,0.97823
558.0,0.98116
559.0,0.98373
560.0,0.98602
561.0,0.98971
562.0,0.99242
563.0,0.99494
564.0,0.99866
565.0,1.00178
566.0,1.00615
567.0,1.00930
568.0,1.01371
569.0,1.01711
570.0,1.02094
571.0,1.02597
572.0,1.02993
573.0,1.03424
574.0,1.03891
575.0,1.04382
576.0,1.04854
577.0,1.05390
578.0,1.05910
579.0,1.06425
580.0,1.06974
581.0,1.07535
582.0,1.08093
583.0,1.08704
584.0,1.09323
585.0,1.09989
586.0,1.10535
587.0,1.11214
588.0,1.11905
589.0,1.12567
590.0,1.13248
591.0,1.13962
592.0,1.14653
593.0,1.15429
594.0,1.16191
595.0,1.16859
596.0,1.17685
597.0,1.18522
598.0,1.19352
599.0,1.20122
600.0,1.21098
601.0,1.21849
602.0,1.22802
603.0,1.23739
604.0,1.24635
605.0,1.25618
606.0,1.26598
607.0,1.27604
608.0,1.28591
609.0,1.29664
610.0,1.30646
611.0,1.31647
612.0,1.32843
613.0,1.33947
614.0,1.35107
615.0,1.36281
616.0,1.37326
617.0,1.38546
618.0,1.39720
619.0,1.40940
620.0,1.42162
621.0,1.43379
622.0,1.44893
623.0,1.46057
624.0,1.47605
625.0,1.48993
626.0,1.50281
627.0,1.51684
628.0,1.53262
629.0,1.54678
630.0,1.56349
631.0,1.57845
632.0,1.59403
633.0,1.61000
634.0,1.62649
635.0,1.64239
636.0,1.65983
637.0,1.67831
638.0,1.69610
639.0,1.71169
640.0,1.73183
641.0,1.74978
642.0,1.77234
643.0,1.78554
644.0,1.80646
645.0,1.82821
646.0,1.84774
647.0,1.87155
648.0,1.89085
649.0,1.91080
650.0,1.93404
651.0,1.95912
652.0,1.98052
653.0,2.00389
654.0,2.02597
655.0,2.05134
656.0,2.07583
657.0,2.10262
658.0,2.12927
659.0,2.14884
660.0,2.18113
661.0,2.20461
662.0,2.23181
663.0,2.26140
664.0,2.29045
665.0,2.31563
666.0,2.34268
667.0,2.37594
668.0,2.39974
669.0,2.42580
670.0,2.45927
671.0,2.49781
672.0,2.52634
673.0,2.56354
674.0,2.57926
675.0,2.62313
676.0,2.65197
677.0,2.69923
678.0,2.71631
679.0,2.77137
680.0,2.79509
681.0,2.83869
682.0,2.87654
683.0,2.92800
684.0,2.95517
685.0,2.98102
686.0,3.02666
687.0,3.04735
688.0,3.11098
689.0,3.14941
690.0,3.19940
691.0,3.22793
692.0,3.28508
693.0,3.33783
694.0,3.38244
695.0,3.40133
696.0,3.43779
697.0,3.48023
698.0,3.60251
699.0,3.56251
700.0,3.78131
701.0,3.75770
702.0,3.74536
703.0,3.80450
704.0,3.80710
705.0,3.74118
706.0,3.94683
707.0,3.91112
708.0,4.18751
709.0,4.32110
710.0,4.06572
711.0,4.37377
712.0,4.27187
713.0,4.54060
714.0,4.97339
715.0,4.88543
716.0,5.25152
717.0,4.67817
718.0,4.45684
719.0,4.66259
720.0,5.72143
721.0,6.00000
722.0,5.24992
723.0,6.00000
724.0,6.00000
725.0,6.00000
726.0,5.75428
727.0,4.69376
728.0,4.50927
729.0,6.00000
730.0,6.00000
731.0,6.00000
732.0,6.00000
733.0,4.60546
734.0,6.00000
735.0,5.20687
736.0,4.34128
737.0,6.00000
738.0,6.00000
739.0,6.00000
740.0,5.43219
741.0,6.00000
742.0,6.00000
743.0,5.01735
744.0,6.00000
745.0,4.73101
746.0,6.00000
747.0,4.80100
748.0,5.81635
749.0,6.00000
750.0,4.66917
751.0,6.00000
752.0,6.00000
753.0,6.00000
754.0,6.00000
755.0,6.00000
756.0,6.00000
757.0,6.00000
758.0,4.83467
759.0,6.00000
760.0,6.00000
761.0,5.82002
762.0,5.63507
763.0,6.00000
764.0,6.00000
765.0,4.70603
766.0,4.65801
767.0,6.00000
768.0,4.62084
769.0,6.00000
770.0,6.00000
771.0,6.00000
772.0,4.70997
773.0,4.96557
774.0,6.00000
775.0,6.00000
776.0,6.00000
777.0,6.00000
778.0,5.23588
779.0,6.00000
780.0,6.00000
781.0,6.00000
782.0,6.00000
783.0,6.00000
784.0,6.00000
785.0,6.00000
786.0,6.00000
787.0,6.00000
788.0,6.00000
789.0,6.00000
790.0,5.14489
791.0,6.00000
792.0,6.00000
793.0,6.00000
794.0,5.35769
795.0,6.00000
796.0,6.00000
797.0,6.00000
798.0,6.00000
799.0,6.00000
800.0,4.95992
801.0,6.00000
802.0,6.00000
803.0,6.00000
804.0,6.00000
805.0,6.00000
806.0,6.00000
807.0,6.00000
808.0,6.00000
809.0,6.00000
810.0,6.00000
811.0,6.00000
812.0,6.00000
813.0,6.00000
814.0,6.00000
815.0,6.00000
816.0,6.00000
817.0,6.00000
818.0,6.00000
819.0,6.00000
820.0,6.00000
821.0,6.00000
822.0,4.12479
823.0,6.00000
824.0,6.00000
825.0,6.00000
826.0,6.00000
827.0,6.00000
828.0,6.00000
829.0,5.04151
830.0,4.54584
831.0,6.00000
832.0,6.00000
833.0,2.75619
834.0,6.00000
835.0,2.73255
836.0,5.81071
837.0,6.00000
838.0,6.00000
839.0,6.00000
840.0,6.00000
841.0,6.00000
842.0,3.16380
843.0,3.47504
844.0,3.05255
845.0,6.00000
846.0,5.50859
847.0,6.00000
848.0,2.72378
849.0,3.14718
850.0,2.85002
