"PANI-pss 7 dias (+ conc).spc"
"Wavelength nm.","Abs."
250.0,1.19528
251.0,1.20267
252.0,1.20990
253.0,1.21784
254.0,1.22719
255.0,1.23447
256.0,1.23926
257.0,1.24002
258.0,1.24126
259.0,1.24274
260.0,1.24598
261.0,1.24718
262.0,1.24440
263.0,1.23814
264.0,1.22882
265.0,1.22119
266.0,1.21244
267.0,1.20482
268.0,1.19348
269.0,1.17756
270.0,1.15959
271.0,1.14297
272.0,1.12841
273.0,1.11098
274.0,1.08907
275.0,1.06835
276.0,1.04765
277.0,1.02427
278.0,1.00200
279.0,0.98125
280.0,0.95930
281.0,0.93823
282.0,0.91688
283.0,0.89403
284.0,0.87226
285.0,0.85030
286.0,0.82802
287.0,0.80638
288.0,0.78623
289.0,0.76621
290.0,0.74792
291.0,0.72900
292.0,0.71083
293.0,0.69528
294.0,0.67959
295.0,0.66460
296.0,0.65149
297.0,0.63667
298.0,0.62635
299.0,0.61702
300.0,0.60748
301.0,0.59757
302.0,0.58996
303.0,0.58414
304.0,0.57848
305.0,0.57477
306.0,0.57065
307.0,0.56702
308.0,0.56443
309.0,0.56105
310.0,0.55915
311.0,0.55885
312.0,0.55714
313.0,0.55801
314.0,0.55762
315.0,0.55776
316.0,0.55809
317.0,0.55808
318.0,0.55952
319.0,0.56023
320.0,0.56119
321.0,0.56333
322.0,0.56406
323.0,0.56475
324.0,0.56687
325.0,0.56860
326.0,0.56921
327.0,0.57225
328.0,0.57400
329.0,0.57548
330.0,0.57663
331.0,0.57906
332.0,0.58099
333.0,0.58243
334.0,0.58411
335.0,0.58556
336.0,0.58718
337.0,0.58924
338.0,0.59087
339.0,0.59167
340.0,0.59212
341.0,0.59501
342.0,0.59586
343.0,0.59690
344.0,0.59818
345.0,0.59902
346.0,0.60013
347.0,0.60172
348.0,0.60243
349.0,0.60254
350.0,0.60301
351.0,0.60390
352.0,0.60419
353.0,0.60486
354.0,0.60502
355.0,0.60593
356.0,0.60612
357.0,0.60608
358.0,0.60619
359.0,0.60627
360.0,0.60587
361.0,0.60539
362.0,0.60639
363.0,0.60560
364.0,0.60619
365.0,0.60634
366.0,0.60641
367.0,0.60597
368.0,0.60511
369.0,0.60558
370.0,0.60584
371.0,0.60527
372.0,0.60480
373.0,0.60399
374.0,0.60402
375.0,0.60358
376.0,0.60331
377.0,0.60351
378.0,0.60383
379.0,0.60262
380.0,0.60276
381.0,0.60208
382.0,0.60316
383.0,0.60237
384.0,0.60181
385.0,0.60169
386.0,0.60109
387.0,0.60118
388.0,0.60087
389.0,0.60151
390.0,0.60031
391.0,0.59980
392.0,0.60075
393.0,0.60072
394.0,0.60047
395.0,0.59987
396.0,0.59988
397.0,0.59984
398.0,0.60017
399.0,0.59976
400.0,0.59913
401.0,0.59952
402.0,0.59985
403.0,0.59895
404.0,0.59951
405.0,0.59902
406.0,0.59926
407.0,0.59860
408.0,0.59853
409.0,0.59949
410.0,0.59871
411.0,0.59896
412.0,0.59947
413.0,0.59967
414.0,0.59963
415.0,0.59866
416.0,0.59899
417.0,0.59856
418.0,0.59862
419.0,0.59867
420.0,0.59851
421.0,0.59878
422.0,0.59839
423.0,0.59753
424.0,0.59809
425.0,0.59788
426.0,0.59758
427.0,0.59760
428.0,0.59633
429.0,0.59688
430.0,0.59523
431.0,0.59482
432.0,0.59442
433.0,0.59225
434.0,0.59127
435.0,0.58949
436.0,0.58702
437.0,0.58556
438.0,0.58190
439.0,0.57904
440.0,0.57519
441.0,0.57085
442.0,0.56711
443.0,0.56273
444.0,0.55785
445.0,0.55211
446.0,0.54668
447.0,0.54123
448.0,0.53480
449.0,0.52860
450.0,0.52172
451.0,0.51536
452.0,0.50821
453.0,0.50157
454.0,0.49384
455.0,0.48579
456.0,0.47746
457.0,0.46975
458.0,0.46217
459.0,0.45435
460.0,0.44702
461.0,0.43792
462.0,0.43009
463.0,0.42159
464.0,0.41366
465.0,0.40630
466.0,0.39828
467.0,0.39192
468.0,0.38462
469.0,0.37722
470.0,0.37155
471.0,0.36599
472.0,0.35918
473.0,0.35401
474.0,0.34892
475.0,0.34390
476.0,0.33933
477.0,0.33561
478.0,0.33054
479.0,0.32609
480.0,0.32329
481.0,0.31916
482.0,0.31654
483.0,0.31362
484.0,0.31067
485.0,0.30706
486.0,0.30422
487.0,0.30151
488.0,0.29917
489.0,0.29714
490.0,0.29459
491.0,0.29268
492.0,0.29055
493.0,0.28804
494.0,0.28683
495.0,0.28462
496.0,0.28289
497.0,0.28090
498.0,0.27970
499.0,0.27745
500.0,0.27665
501.0,0.27554
502.0,0.27343
503.0,0.27170
504.0,0.27031
505.0,0.26974
506.0,0.26798
507.0,0.26679
508.0,0.26534
509.0,0.26435
510.0,0.26359
511.0,0.26232
512.0,0.26066
513.0,0.26034
514.0,0.25824
515.0,0.25804
516.0,0.25678
517.0,0.25642
518.0,0.25567
519.0,0.25436
520.0,0.25383
521.0,0.25298
522.0,0.25176
523.0,0.25198
524.0,0.25093
525.0,0.25020
526.0,0.24904
527.0,0.24886
528.0,0.24856
529.0,0.24741
530.0,0.24668
531.0,0.24606
532.0,0.24591
533.0,0.24528
534.0,0.24439
535.0,0.24420
536.0,0.24464
537.0,0.24395
538.0,0.24358
539.0,0.24382
540.0,0.24292
541.0,0.24232
542.0,0.24154
543.0,0.24192
544.0,0.24152
545.0,0.24204
546.0,0.24187
547.0,0.24167
548.0,0.24156
549.0,0.24146
550.0,0.24162
551.0,0.24096
552.0,0.24111
553.0,0.24153
554.0,0.24159
555.0,0.24115
556.0,0.24177
557.0,0.24153
558.0,0.24233
559.0,0.24232
560.0,0.24259
561.0,0.24301
562.0,0.24310
563.0,0.24340
564.0,0.24390
565.0,0.24425
566.0,0.24461
567.0,0.24511
568.0,0.24545
569.0,0.24566
570.0,0.24670
571.0,0.24751
572.0,0.24764
573.0,0.24855
574.0,0.24936
575.0,0.24981
576.0,0.24972
577.0,0.25100
578.0,0.25178
579.0,0.25251
580.0,0.25342
581.0,0.25461
582.0,0.25573
583.0,0.25625
584.0,0.25726
585.0,0.25794
586.0,0.25870
587.0,0.25993
588.0,0.26137
589.0,0.26253
590.0,0.26351
591.0,0.26409
592.0,0.26516
593.0,0.26689
594.0,0.26757
595.0,0.26915
596.0,0.27028
597.0,0.27263
598.0,0.27279
599.0,0.27499
600.0,0.27617
601.0,0.27717
602.0,0.27892
603.0,0.28047
604.0,0.28232
605.0,0.28315
606.0,0.28579
607.0,0.28739
608.0,0.28877
609.0,0.29103
610.0,0.29268
611.0,0.29391
612.0,0.29592
613.0,0.29738
614.0,0.29957
615.0,0.30189
616.0,0.30311
617.0,0.30547
618.0,0.30744
619.0,0.30924
620.0,0.31133
621.0,0.31315
622.0,0.31646
623.0,0.31810
624.0,0.32017
625.0,0.32262
626.0,0.32525
627.0,0.32741
628.0,0.32991
629.0,0.33300
630.0,0.33469
631.0,0.33745
632.0,0.34059
633.0,0.34291
634.0,0.34536
635.0,0.34806
636.0,0.35124
637.0,0.35427
638.0,0.35686
639.0,0.35981
640.0,0.36271
641.0,0.36540
642.0,0.36885
643.0,0.37123
644.0,0.37531
645.0,0.37831
646.0,0.38154
647.0,0.38494
648.0,0.38847
649.0,0.39148
650.0,0.39501
651.0,0.39911
652.0,0.40142
653.0,0.40581
654.0,0.40915
655.0,0.41357
656.0,0.41720
657.0,0.42056
658.0,0.42422
659.0,0.42834
660.0,0.43210
661.0,0.43592
662.0,0.44053
663.0,0.44445
664.0,0.44802
665.0,0.45168
666.0,0.45566
667.0,0.45944
668.0,0.46368
669.0,0.46771
670.0,0.47125
671.0,0.47572
672.0,0.48044
673.0,0.48441
674.0,0.48875
675.0,0.49343
676.0,0.49750
677.0,0.50168
678.0,0.50650
679.0,0.51128
680.0,0.51530
681.0,0.51955
682.0,0.52422
683.0,0.52894
684.0,0.53373
685.0,0.53809
686.0,0.54225
687.0,0.54645
688.0,0.55151
689.0,0.55645
690.0,0.56043
691.0,0.56491
692.0,0.56980
693.0,0.57458
694.0,0.57895
695.0,0.58373
696.0,0.58831
697.0,0.59339
698.0,0.59676
699.0,0.60181
700.0,0.60601
701.0,0.60995
702.0,0.61485
703.0,0.61939
704.0,0.62334
705.0,0.62784
706.0,0.63228
707.0,0.63648
708.0,0.64027
709.0,0.64413
710.0,0.64834
711.0,0.65243
712.0,0.65645
713.0,0.66079
714.0,0.66415
715.0,0.66792
716.0,0.67157
717.0,0.67572
718.0,0.67899
719.0,0.68288
720.0,0.68632
721.0,0.69039
722.0,0.69311
723.0,0.69705
724.0,0.70077
725.0,0.70345
726.0,0.70774
727.0,0.70984
728.0,0.71458
729.0,0.71634
730.0,0.72050
731.0,0.72355
732.0,0.72658
733.0,0.72893
734.0,0.73225
735.0,0.73458
736.0,0.73779
737.0,0.73972
738.0,0.74261
739.0,0.74517
740.0,0.74664
741.0,0.74884
742.0,0.75071
743.0,0.75252
744.0,0.75403
745.0,0.75641
746.0,0.75761
747.0,0.75914
748.0,0.76076
749.0,0.76182
750.0,0.76288
751.0,0.76450
752.0,0.76562
753.0,0.76612
754.0,0.76745
755.0,0.76773
756.0,0.76920
757.0,0.77106
758.0,0.77222
759.0,0.77280
760.0,0.77337
761.0,0.77320
762.0,0.77472
763.0,0.77603
764.0,0.77516
765.0,0.77595
766.0,0.77630
767.0,0.77646
768.0,0.77607
769.0,0.77757
770.0,0.77779
771.0,0.77903
772.0,0.77831
773.0,0.77955
774.0,0.77940
775.0,0.77974
776.0,0.77899
777.0,0.77931
778.0,0.77857
779.0,0.77856
780.0,0.77800
781.0,0.77772
782.0,0.77800
783.0,0.77697
784.0,0.77782
785.0,0.77623
786.0,0.77537
787.0,0.77500
788.0,0.77463
789.0,0.77443
790.0,0.77403
791.0,0.77410
792.0,0.77252
793.0,0.77307
794.0,0.77126
795.0,0.77042
796.0,0.77024
797.0,0.77039
798.0,0.76830
799.0,0.76809
800.0,0.76672
801.0,0.76898
802.0,0.76791
803.0,0.76509
804.0,0.76724
805.0,0.76569
806.0,0.76594
807.0,0.76313
808.0,0.76231
809.0,0.76214
810.0,0.76095
811.0,0.76038
812.0,0.75945
813.0,0.75967
814.0,0.75978
815.0,0.75831
816.0,0.75674
817.0,0.75779
818.0,0.75546
819.0,0.75480
820.0,0.75459
821.0,0.75343
822.0,0.75241
823.0,0.75284
824.0,0.74965
825.0,0.75039
826.0,0.74991
827.0,0.74953
828.0,0.74869
829.0,0.74784
830.0,0.74758
831.0,0.75071
832.0,0.74941
833.0,0.74370
834.0,0.73583
835.0,0.74212
836.0,0.74297
837.0,0.73363
838.0,0.73930
839.0,0.73651
840.0,0.73519
841.0,0.72959
842.0,0.73557
843.0,0.72992
844.0,0.72912
845.0,0.73154
846.0,0.72567
847.0,0.72631
848.0,0.72467
849.0,0.72252
850.0,0.71974
