"pss (-- conc).spc"
"Wavelength nm.","Abs."
250.0,2.43514
251.0,2.45240
252.0,2.46464
253.0,2.49199
254.0,2.51461
255.0,2.53881
256.0,2.54851
257.0,2.48748
258.0,2.40959
259.0,2.30992
260.0,2.21193
261.0,2.11345
262.0,1.99849
263.0,1.88075
264.0,1.77417
265.0,1.69135
266.0,1.62344
267.0,1.53568
268.0,1.39303
269.0,1.19404
270.0,0.98922
271.0,0.82635
272.0,0.70913
273.0,0.60745
274.0,0.51313
275.0,0.43607
276.0,0.37343
277.0,0.32083
278.0,0.28321
279.0,0.25876
280.0,0.24767
281.0,0.24535
282.0,0.24781
283.0,0.24920
284.0,0.24130
285.0,0.22143
286.0,0.19799
287.0,0.18061
288.0,0.16629
289.0,0.15809
290.0,0.15388
291.0,0.15490
292.0,0.16274
293.0,0.17114
294.0,0.16151
295.0,0.13823
296.0,0.11413
297.0,0.09760
298.0,0.08811
299.0,0.08247
300.0,0.07872
301.0,0.07458
302.0,0.07374
303.0,0.07092
304.0,0.07095
305.0,0.06920
306.0,0.06848
307.0,0.06951
308.0,0.06769
309.0,0.06641
310.0,0.06618
311.0,0.06583
312.0,0.06571
313.0,0.06583
314.0,0.06608
315.0,0.06453
316.0,0.06495
317.0,0.06436
318.0,0.06431
319.0,0.06324
320.0,0.06387
321.0,0.06412
322.0,0.06419
323.0,0.06319
324.0,0.06336
325.0,0.06382
326.0,0.06297
327.0,0.06309
328.0,0.06322
329.0,0.06261
330.0,0.06173
331.0,0.06221
332.0,0.06244
333.0,0.06205
334.0,0.06100
335.0,0.06131
336.0,0.06127
337.0,0.06111
338.0,0.06116
339.0,0.06066
340.0,0.06043
341.0,0.06088
342.0,0.06005
343.0,0.05938
344.0,0.06011
345.0,0.05966
346.0,0.05943
347.0,0.05898
348.0,0.05986
349.0,0.05883
350.0,0.05873
351.0,0.05893
352.0,0.05838
353.0,0.05779
354.0,0.05789
355.0,0.05812
356.0,0.05769
357.0,0.05753
358.0,0.05687
359.0,0.05743
360.0,0.05643
361.0,0.05693
362.0,0.05694
363.0,0.05713
364.0,0.05720
365.0,0.05667
366.0,0.05641
367.0,0.05627
368.0,0.05625
369.0,0.05568
370.0,0.05624
371.0,0.05577
372.0,0.05559
373.0,0.05585
374.0,0.05510
375.0,0.05477
376.0,0.05461
377.0,0.05449
378.0,0.05449
379.0,0.05357
380.0,0.05377
381.0,0.05398
382.0,0.05412
383.0,0.05396
384.0,0.05288
385.0,0.05317
386.0,0.05313
387.0,0.05277
388.0,0.05214
389.0,0.05303
390.0,0.05227
391.0,0.05196
392.0,0.05263
393.0,0.05191
394.0,0.05207
395.0,0.05145
396.0,0.05141
397.0,0.05203
398.0,0.05198
399.0,0.05151
400.0,0.05106
401.0,0.05113
402.0,0.05154
403.0,0.05105
404.0,0.05133
405.0,0.05059
406.0,0.05092
407.0,0.05023
408.0,0.05039
409.0,0.05079
410.0,0.05044
411.0,0.05041
412.0,0.05035
413.0,0.05050
414.0,0.05023
415.0,0.04959
416.0,0.04957
417.0,0.04971
418.0,0.04917
419.0,0.04956
420.0,0.04963
421.0,0.04907
422.0,0.04884
423.0,0.04773
424.0,0.04875
425.0,0.04863
426.0,0.04853
427.0,0.04904
428.0,0.04817
429.0,0.04881
430.0,0.04783
431.0,0.04809
432.0,0.04809
433.0,0.04790
434.0,0.04800
435.0,0.04754
436.0,0.04738
437.0,0.04752
438.0,0.04666
439.0,0.04748
440.0,0.04708
441.0,0.04655
442.0,0.04664
443.0,0.04685
444.0,0.04642
445.0,0.04584
446.0,0.04583
447.0,0.04635
448.0,0.04590
449.0,0.04563
450.0,0.04512
451.0,0.04505
452.0,0.04493
453.0,0.04514
454.0,0.04503
455.0,0.04429
456.0,0.04421
457.0,0.04414
458.0,0.04405
459.0,0.04388
460.0,0.04409
461.0,0.04335
462.0,0.04331
463.0,0.04325
464.0,0.04268
465.0,0.04333
466.0,0.04281
467.0,0.04349
468.0,0.04254
469.0,0.04252
470.0,0.04263
471.0,0.04303
472.0,0.04253
473.0,0.04212
474.0,0.04274
475.0,0.04211
476.0,0.04184
477.0,0.04192
478.0,0.04157
479.0,0.04097
480.0,0.04140
481.0,0.04119
482.0,0.04152
483.0,0.04169
484.0,0.04137
485.0,0.04106
486.0,0.04122
487.0,0.04090
488.0,0.04076
489.0,0.04096
490.0,0.04102
491.0,0.04080
492.0,0.04097
493.0,0.04065
494.0,0.04091
495.0,0.04056
496.0,0.04070
497.0,0.04064
498.0,0.04012
499.0,0.04009
500.0,0.04065
501.0,0.04080
502.0,0.04034
503.0,0.04035
504.0,0.04008
505.0,0.04044
506.0,0.04016
507.0,0.04029
508.0,0.04004
509.0,0.04006
510.0,0.04006
511.0,0.03986
512.0,0.03980
513.0,0.04012
514.0,0.03934
515.0,0.03956
516.0,0.03998
517.0,0.04000
518.0,0.03988
519.0,0.03995
520.0,0.04029
521.0,0.03937
522.0,0.03963
523.0,0.04028
524.0,0.03992
525.0,0.03966
526.0,0.03981
527.0,0.03975
528.0,0.04005
529.0,0.03986
530.0,0.03930
531.0,0.03893
532.0,0.03894
533.0,0.03910
534.0,0.03845
535.0,0.03863
536.0,0.03878
537.0,0.03882
538.0,0.03857
539.0,0.03915
540.0,0.03910
541.0,0.03864
542.0,0.03828
543.0,0.03861
544.0,0.03824
545.0,0.03876
546.0,0.03854
547.0,0.03837
548.0,0.03835
549.0,0.03860
550.0,0.03857
551.0,0.03795
552.0,0.03815
553.0,0.03831
554.0,0.03857
555.0,0.03786
556.0,0.03819
557.0,0.03783
558.0,0.03809
559.0,0.03765
560.0,0.03796
561.0,0.03789
562.0,0.03803
563.0,0.03766
564.0,0.03804
565.0,0.03783
566.0,0.03810
567.0,0.03838
568.0,0.03772
569.0,0.03785
570.0,0.03821
571.0,0.03795
572.0,0.03803
573.0,0.03807
574.0,0.03802
575.0,0.03785
576.0,0.03756
577.0,0.03799
578.0,0.03820
579.0,0.03834
580.0,0.03788
581.0,0.03808
582.0,0.03868
583.0,0.03796
584.0,0.03844
585.0,0.03798
586.0,0.03765
587.0,0.03796
588.0,0.03811
589.0,0.03857
590.0,0.03878
591.0,0.03795
592.0,0.03832
593.0,0.03827
594.0,0.03803
595.0,0.03834
596.0,0.03845
597.0,0.03876
598.0,0.03812
599.0,0.03892
600.0,0.03882
601.0,0.03798
602.0,0.03843
603.0,0.03818
604.0,0.03817
605.0,0.03793
606.0,0.03873
607.0,0.03882
608.0,0.03863
609.0,0.03912
610.0,0.03865
611.0,0.03857
612.0,0.03884
613.0,0.03818
614.0,0.03855
615.0,0.03889
616.0,0.03836
617.0,0.03835
618.0,0.03863
619.0,0.03869
620.0,0.03862
621.0,0.03835
622.0,0.03903
623.0,0.03835
624.0,0.03874
625.0,0.03854
626.0,0.03858
627.0,0.03884
628.0,0.03892
629.0,0.03909
630.0,0.03883
631.0,0.03863
632.0,0.03913
633.0,0.03914
634.0,0.03863
635.0,0.03827
636.0,0.03899
637.0,0.03868
638.0,0.03892
639.0,0.03886
640.0,0.03939
641.0,0.03866
642.0,0.03907
643.0,0.03821
644.0,0.03893
645.0,0.03904
646.0,0.03926
647.0,0.03898
648.0,0.03930
649.0,0.03899
650.0,0.03878
651.0,0.03968
652.0,0.03880
653.0,0.03884
654.0,0.03927
655.0,0.03994
656.0,0.03930
657.0,0.03911
658.0,0.03941
659.0,0.03993
660.0,0.03946
661.0,0.03990
662.0,0.04010
663.0,0.03954
664.0,0.03993
665.0,0.03943
666.0,0.04018
667.0,0.03970
668.0,0.03999
669.0,0.03959
670.0,0.03933
671.0,0.04010
672.0,0.03998
673.0,0.03998
674.0,0.03983
675.0,0.04007
676.0,0.03990
677.0,0.03985
678.0,0.04025
679.0,0.04053
680.0,0.03964
681.0,0.04026
682.0,0.03999
683.0,0.04067
684.0,0.04036
685.0,0.04057
686.0,0.04030
687.0,0.03992
688.0,0.04050
689.0,0.04057
690.0,0.04039
691.0,0.04080
692.0,0.04032
693.0,0.04099
694.0,0.04088
695.0,0.04049
696.0,0.04107
697.0,0.04131
698.0,0.04061
699.0,0.04136
700.0,0.04124
701.0,0.04109
702.0,0.04133
703.0,0.04217
704.0,0.04155
705.0,0.04192
706.0,0.04165
707.0,0.04265
708.0,0.04280
709.0,0.04271
710.0,0.04257
711.0,0.04252
712.0,0.04296
713.0,0.04355
714.0,0.04390
715.0,0.04394
716.0,0.04397
717.0,0.04456
718.0,0.04399
719.0,0.04471
720.0,0.04479
721.0,0.04529
722.0,0.04525
723.0,0.04561
724.0,0.04605
725.0,0.04686
726.0,0.04713
727.0,0.04728
728.0,0.04823
729.0,0.04756
730.0,0.04878
731.0,0.04913
732.0,0.05000
733.0,0.05009
734.0,0.05089
735.0,0.05112
736.0,0.05129
737.0,0.05197
738.0,0.05278
739.0,0.05335
740.0,0.05236
741.0,0.05335
742.0,0.05290
743.0,0.05320
744.0,0.05300
745.0,0.05358
746.0,0.05351
747.0,0.05354
748.0,0.05371
749.0,0.05353
750.0,0.05372
751.0,0.05355
752.0,0.05403
753.0,0.05382
754.0,0.05386
755.0,0.05421
756.0,0.05458
757.0,0.05430
758.0,0.05436
759.0,0.05444
760.0,0.05447
761.0,0.05426
762.0,0.05454
763.0,0.05538
764.0,0.05477
765.0,0.05360
766.0,0.05437
767.0,0.05395
768.0,0.05447
769.0,0.05432
770.0,0.05489
771.0,0.05486
772.0,0.05415
773.0,0.05412
774.0,0.05433
775.0,0.05471
776.0,0.05433
777.0,0.05456
778.0,0.05415
779.0,0.05410
780.0,0.05451
781.0,0.05397
782.0,0.05452
783.0,0.05433
784.0,0.05468
785.0,0.05424
786.0,0.05377
787.0,0.05464
788.0,0.05472
789.0,0.05446
790.0,0.05443
791.0,0.05433
792.0,0.05373
793.0,0.05429
794.0,0.05344
795.0,0.05341
796.0,0.05314
797.0,0.05473
798.0,0.05366
799.0,0.05303
800.0,0.05381
801.0,0.05684
802.0,0.05692
803.0,0.05596
804.0,0.05734
805.0,0.05642
806.0,0.05707
807.0,0.05615
808.0,0.05598
809.0,0.05648
810.0,0.05593
811.0,0.05681
812.0,0.05661
813.0,0.05635
814.0,0.05697
815.0,0.05694
816.0,0.05630
817.0,0.05697
818.0,0.05688
819.0,0.05668
820.0,0.05713
821.0,0.05757
822.0,0.05734
823.0,0.05745
824.0,0.05740
825.0,0.05796
826.0,0.05860
827.0,0.05887
828.0,0.05912
829.0,0.05905
830.0,0.06053
831.0,0.05978
832.0,0.06393
833.0,0.05915
834.0,0.06170
835.0,0.06202
836.0,0.06237
837.0,0.06267
838.0,0.06427
839.0,0.06653
840.0,0.06438
841.0,0.06462
842.0,0.06537
843.0,0.06253
844.0,0.06371
845.0,0.06196
846.0,0.06330
847.0,0.06570
848.0,0.06433
849.0,0.06342
850.0,0.06482
