"agua PANI-PSS acetona.spc"
"Wavelength nm.","Abs."
250.0,0.64831
251.0,0.63857
252.0,0.62971
253.0,0.62305
254.0,0.61743
255.0,0.61087
256.0,0.60412
257.0,0.59558
258.0,0.58844
259.0,0.58363
260.0,0.57953
261.0,0.57722
262.0,0.57303
263.0,0.56594
264.0,0.55921
265.0,0.55273
266.0,0.54911
267.0,0.54547
268.0,0.53991
269.0,0.53342
270.0,0.52755
271.0,0.52300
272.0,0.51907
273.0,0.51328
274.0,0.50613
275.0,0.49952
276.0,0.49392
277.0,0.48919
278.0,0.48484
279.0,0.48030
280.0,0.47604
281.0,0.47184
282.0,0.46813
283.0,0.46434
284.0,0.46063
285.0,0.45983
286.0,0.45448
287.0,0.45313
288.0,0.45261
289.0,0.45121
290.0,0.44936
291.0,0.44826
292.0,0.44906
293.0,0.44718
294.0,0.44789
295.0,0.44645
296.0,0.44588
297.0,0.44555
298.0,0.44418
299.0,0.44458
300.0,0.44476
301.0,0.44429
302.0,0.44380
303.0,0.44482
304.0,0.44403
305.0,0.44426
306.0,0.44444
307.0,0.44609
308.0,0.44590
309.0,0.44583
310.0,0.44696
311.0,0.44609
312.0,0.44693
313.0,0.44993
314.0,0.45042
315.0,0.45059
316.0,0.45305
317.0,0.45296
318.0,0.45438
319.0,0.45622
320.0,0.45844
321.0,0.45914
322.0,0.45939
323.0,0.46291
324.0,0.46469
325.0,0.46608
326.0,0.46855
327.0,0.46968
328.0,0.47197
329.0,0.47367
330.0,0.47560
331.0,0.47842
332.0,0.47970
333.0,0.48225
334.0,0.48438
335.0,0.48575
336.0,0.48832
337.0,0.48973
338.0,0.49177
339.0,0.49277
340.0,0.49463
341.0,0.49604
342.0,0.49800
343.0,0.49887
344.0,0.50074
345.0,0.50145
346.0,0.50271
347.0,0.50358
348.0,0.50488
349.0,0.50492
350.0,0.50547
351.0,0.50630
352.0,0.50677
353.0,0.50758
354.0,0.50734
355.0,0.50775
356.0,0.50755
357.0,0.50744
358.0,0.50807
359.0,0.50738
360.0,0.50757
361.0,0.50792
362.0,0.50771
363.0,0.50807
364.0,0.50780
365.0,0.50762
366.0,0.50643
367.0,0.50573
368.0,0.50531
369.0,0.50503
370.0,0.50545
371.0,0.50537
372.0,0.50572
373.0,0.50487
374.0,0.50453
375.0,0.50440
376.0,0.50396
377.0,0.50368
378.0,0.50314
379.0,0.50317
380.0,0.50214
381.0,0.50141
382.0,0.50293
383.0,0.50182
384.0,0.50061
385.0,0.50090
386.0,0.50043
387.0,0.50085
388.0,0.50060
389.0,0.49992
390.0,0.50071
391.0,0.50043
392.0,0.49993
393.0,0.49875
394.0,0.49896
395.0,0.49825
396.0,0.49821
397.0,0.49795
398.0,0.49818
399.0,0.49852
400.0,0.49780
401.0,0.49695
402.0,0.49757
403.0,0.49727
404.0,0.49674
405.0,0.49595
406.0,0.49629
407.0,0.49492
408.0,0.49579
409.0,0.49563
410.0,0.49530
411.0,0.49476
412.0,0.49482
413.0,0.49452
414.0,0.49459
415.0,0.49365
416.0,0.49330
417.0,0.49252
418.0,0.49200
419.0,0.49179
420.0,0.49121
421.0,0.49043
422.0,0.48950
423.0,0.48823
424.0,0.48787
425.0,0.48631
426.0,0.48622
427.0,0.48477
428.0,0.48372
429.0,0.48209
430.0,0.48028
431.0,0.47846
432.0,0.47551
433.0,0.47298
434.0,0.47054
435.0,0.46758
436.0,0.46310
437.0,0.45939
438.0,0.45585
439.0,0.45043
440.0,0.44576
441.0,0.44033
442.0,0.43545
443.0,0.42925
444.0,0.42269
445.0,0.41625
446.0,0.40989
447.0,0.40359
448.0,0.39662
449.0,0.38987
450.0,0.38256
451.0,0.37659
452.0,0.36976
453.0,0.36269
454.0,0.35500
455.0,0.34799
456.0,0.34061
457.0,0.33406
458.0,0.32626
459.0,0.31952
460.0,0.31356
461.0,0.30591
462.0,0.29984
463.0,0.29343
464.0,0.28718
465.0,0.28165
466.0,0.27545
467.0,0.27020
468.0,0.26569
469.0,0.26115
470.0,0.25725
471.0,0.25283
472.0,0.24907
473.0,0.24511
474.0,0.24236
475.0,0.23933
476.0,0.23631
477.0,0.23377
478.0,0.23092
479.0,0.22899
480.0,0.22615
481.0,0.22497
482.0,0.22203
483.0,0.22037
484.0,0.21962
485.0,0.21766
486.0,0.21546
487.0,0.21424
488.0,0.21328
489.0,0.21184
490.0,0.21077
491.0,0.20959
492.0,0.20810
493.0,0.20669
494.0,0.20549
495.0,0.20472
496.0,0.20425
497.0,0.20362
498.0,0.20227
499.0,0.20145
500.0,0.20081
501.0,0.19974
502.0,0.19915
503.0,0.19794
504.0,0.19727
505.0,0.19687
506.0,0.19657
507.0,0.19557
508.0,0.19447
509.0,0.19455
510.0,0.19384
511.0,0.19332
512.0,0.19270
513.0,0.19217
514.0,0.19163
515.0,0.19071
516.0,0.19075
517.0,0.18972
518.0,0.18941
519.0,0.18914
520.0,0.18781
521.0,0.18903
522.0,0.18834
523.0,0.18766
524.0,0.18772
525.0,0.18684
526.0,0.18657
527.0,0.18589
528.0,0.18587
529.0,0.18587
530.0,0.18597
531.0,0.18468
532.0,0.18505
533.0,0.18437
534.0,0.18402
535.0,0.18430
536.0,0.18417
537.0,0.18415
538.0,0.18391
539.0,0.18414
540.0,0.18345
541.0,0.18334
542.0,0.18302
543.0,0.18291
544.0,0.18326
545.0,0.18300
546.0,0.18310
547.0,0.18346
548.0,0.18322
549.0,0.18403
550.0,0.18345
551.0,0.18351
552.0,0.18337
553.0,0.18340
554.0,0.18403
555.0,0.18418
556.0,0.18355
557.0,0.18422
558.0,0.18419
559.0,0.18454
560.0,0.18421
561.0,0.18483
562.0,0.18482
563.0,0.18496
564.0,0.18544
565.0,0.18564
566.0,0.18619
567.0,0.18628
568.0,0.18692
569.0,0.18675
570.0,0.18704
571.0,0.18802
572.0,0.18839
573.0,0.18836
574.0,0.18872
575.0,0.18975
576.0,0.18981
577.0,0.19067
578.0,0.19083
579.0,0.19158
580.0,0.19102
581.0,0.19250
582.0,0.19248
583.0,0.19335
584.0,0.19414
585.0,0.19487
586.0,0.19517
587.0,0.19580
588.0,0.19678
589.0,0.19657
590.0,0.19777
591.0,0.19862
592.0,0.19889
593.0,0.20061
594.0,0.20101
595.0,0.20167
596.0,0.20212
597.0,0.20318
598.0,0.20438
599.0,0.20475
600.0,0.20639
601.0,0.20665
602.0,0.20780
603.0,0.20829
604.0,0.20902
605.0,0.21040
606.0,0.21136
607.0,0.21212
608.0,0.21391
609.0,0.21467
610.0,0.21537
611.0,0.21631
612.0,0.21812
613.0,0.21926
614.0,0.22018
615.0,0.22108
616.0,0.22260
617.0,0.22396
618.0,0.22492
619.0,0.22607
620.0,0.22729
621.0,0.22928
622.0,0.23036
623.0,0.23154
624.0,0.23332
625.0,0.23521
626.0,0.23637
627.0,0.23764
628.0,0.23996
629.0,0.24079
630.0,0.24238
631.0,0.24400
632.0,0.24619
633.0,0.24732
634.0,0.24930
635.0,0.25080
636.0,0.25291
637.0,0.25443
638.0,0.25682
639.0,0.25854
640.0,0.26045
641.0,0.26265
642.0,0.26469
643.0,0.26642
644.0,0.26860
645.0,0.27092
646.0,0.27321
647.0,0.27534
648.0,0.27796
649.0,0.27913
650.0,0.28230
651.0,0.28403
652.0,0.28750
653.0,0.29007
654.0,0.29289
655.0,0.29472
656.0,0.29722
657.0,0.30000
658.0,0.30345
659.0,0.30603
660.0,0.30883
661.0,0.31186
662.0,0.31475
663.0,0.31757
664.0,0.32007
665.0,0.32405
666.0,0.32617
667.0,0.33082
668.0,0.33339
669.0,0.33614
670.0,0.33909
671.0,0.34286
672.0,0.34580
673.0,0.35033
674.0,0.35308
675.0,0.35673
676.0,0.36085
677.0,0.36401
678.0,0.36804
679.0,0.37133
680.0,0.37534
681.0,0.37951
682.0,0.38442
683.0,0.38797
684.0,0.39153
685.0,0.39602
686.0,0.39971
687.0,0.40428
688.0,0.40867
689.0,0.41348
690.0,0.41750
691.0,0.42150
692.0,0.42700
693.0,0.43198
694.0,0.43579
695.0,0.43968
696.0,0.44511
697.0,0.45038
698.0,0.45461
699.0,0.45979
700.0,0.46485
701.0,0.47005
702.0,0.47545
703.0,0.48027
704.0,0.48495
705.0,0.48989
706.0,0.49498
707.0,0.50029
708.0,0.50570
709.0,0.51080
710.0,0.51510
711.0,0.52069
712.0,0.52524
713.0,0.53115
714.0,0.53636
715.0,0.54162
716.0,0.54677
717.0,0.55159
718.0,0.55709
719.0,0.56250
720.0,0.56766
721.0,0.57220
722.0,0.57767
723.0,0.58241
724.0,0.58723
725.0,0.59263
726.0,0.59833
727.0,0.60313
728.0,0.60836
729.0,0.61322
730.0,0.61761
731.0,0.62273
732.0,0.62801
733.0,0.63140
734.0,0.63638
735.0,0.64207
736.0,0.64535
737.0,0.65056
738.0,0.65406
739.0,0.65817
740.0,0.66291
741.0,0.66596
742.0,0.66903
743.0,0.67239
744.0,0.67626
745.0,0.67912
746.0,0.68254
747.0,0.68613
748.0,0.68893
749.0,0.69170
750.0,0.69466
751.0,0.69623
752.0,0.70003
753.0,0.70205
754.0,0.70371
755.0,0.70719
756.0,0.70879
757.0,0.70901
758.0,0.71128
759.0,0.71422
760.0,0.71502
761.0,0.71744
762.0,0.71882
763.0,0.72012
764.0,0.72132
765.0,0.72261
766.0,0.72431
767.0,0.72510
768.0,0.72576
769.0,0.72732
770.0,0.72653
771.0,0.72748
772.0,0.72834
773.0,0.72737
774.0,0.72928
775.0,0.72929
776.0,0.73005
777.0,0.72947
778.0,0.72958
779.0,0.72878
780.0,0.72873
781.0,0.72871
782.0,0.72888
783.0,0.72841
784.0,0.72680
785.0,0.72767
786.0,0.72599
787.0,0.72672
788.0,0.72555
789.0,0.72469
790.0,0.72338
791.0,0.72364
792.0,0.72158
793.0,0.72098
794.0,0.71979
795.0,0.71738
796.0,0.71611
797.0,0.71602
798.0,0.71454
799.0,0.71228
800.0,0.71113
801.0,0.71167
802.0,0.71033
803.0,0.70854
804.0,0.70738
805.0,0.70572
806.0,0.70363
807.0,0.70231
808.0,0.70042
809.0,0.69942
810.0,0.69727
811.0,0.69575
812.0,0.69411
813.0,0.69209
814.0,0.68972
815.0,0.68873
816.0,0.68644
817.0,0.68427
818.0,0.68313
819.0,0.68178
820.0,0.67964
821.0,0.67720
822.0,0.67556
823.0,0.67380
824.0,0.67150
825.0,0.67142
826.0,0.66793
827.0,0.66615
828.0,0.66370
829.0,0.66329
830.0,0.66218
831.0,0.65915
832.0,0.65986
833.0,0.65943
834.0,0.65379
835.0,0.64599
836.0,0.65609
837.0,0.64839
838.0,0.64323
839.0,0.64295
840.0,0.63914
841.0,0.63860
842.0,0.63764
843.0,0.63852
844.0,0.63289
845.0,0.63334
846.0,0.63047
847.0,0.62456
848.0,0.62242
849.0,0.62366
850.0,0.62001
