"blanco_agua.spc"
"Wavelength nm.","Abs."
250.0,0.06946
251.0,0.06903
252.0,0.06819
253.0,0.06813
254.0,0.06779
255.0,0.06737
256.0,0.06699
257.0,0.06669
258.0,0.06657
259.0,0.06719
260.0,0.06644
261.0,0.06597
262.0,0.06585
263.0,0.06600
264.0,0.06560
265.0,0.06473
266.0,0.06501
267.0,0.06440
268.0,0.06484
269.0,0.06430
270.0,0.06457
271.0,0.06505
272.0,0.06371
273.0,0.06364
274.0,0.06365
275.0,0.06305
276.0,0.06419
277.0,0.06294
278.0,0.06286
279.0,0.06265
280.0,0.06321
281.0,0.06271
282.0,0.06224
283.0,0.06266
284.0,0.06259
285.0,0.06145
286.0,0.05864
287.0,0.05863
288.0,0.05971
289.0,0.06042
290.0,0.06038
291.0,0.06035
292.0,0.05893
293.0,0.05905
294.0,0.05893
295.0,0.05989
296.0,0.06001
297.0,0.05850
298.0,0.05818
299.0,0.05874
300.0,0.05917
301.0,0.05692
302.0,0.05748
303.0,0.05764
304.0,0.05813
305.0,0.05844
306.0,0.05786
307.0,0.05728
308.0,0.05801
309.0,0.05706
310.0,0.05745
311.0,0.05741
312.0,0.05647
313.0,0.05739
314.0,0.05665
315.0,0.05641
316.0,0.05662
317.0,0.05674
318.0,0.05764
319.0,0.05617
320.0,0.05701
321.0,0.05722
322.0,0.05713
323.0,0.05621
324.0,0.05691
325.0,0.05610
326.0,0.05545
327.0,0.05597
328.0,0.05669
329.0,0.05602
330.0,0.05585
331.0,0.05553
332.0,0.05681
333.0,0.05551
334.0,0.05463
335.0,0.05565
336.0,0.05581
337.0,0.05520
338.0,0.05589
339.0,0.05566
340.0,0.05448
341.0,0.05523
342.0,0.05372
343.0,0.05469
344.0,0.05500
345.0,0.05476
346.0,0.05466
347.0,0.05449
348.0,0.05471
349.0,0.05441
350.0,0.05388
351.0,0.05459
352.0,0.05403
353.0,0.05366
354.0,0.05369
355.0,0.05409
356.0,0.05366
357.0,0.05372
358.0,0.05320
359.0,0.05343
360.0,0.05312
361.0,0.05368
362.0,0.05346
363.0,0.05377
364.0,0.05347
365.0,0.05331
366.0,0.05291
367.0,0.05288
368.0,0.05290
369.0,0.05344
370.0,0.05292
371.0,0.05240
372.0,0.05310
373.0,0.05273
374.0,0.05197
375.0,0.05236
376.0,0.05207
377.0,0.05246
378.0,0.05233
379.0,0.05114
380.0,0.05192
381.0,0.05178
382.0,0.05227
383.0,0.05185
384.0,0.05131
385.0,0.05191
386.0,0.05134
387.0,0.05117
388.0,0.05054
389.0,0.05103
390.0,0.05031
391.0,0.05081
392.0,0.05118
393.0,0.05020
394.0,0.05053
395.0,0.05035
396.0,0.05049
397.0,0.05099
398.0,0.05062
399.0,0.05014
400.0,0.04968
401.0,0.05045
402.0,0.04971
403.0,0.05016
404.0,0.05035
405.0,0.04967
406.0,0.04975
407.0,0.04939
408.0,0.04936
409.0,0.04988
410.0,0.04903
411.0,0.04916
412.0,0.04965
413.0,0.04964
414.0,0.04930
415.0,0.04910
416.0,0.04910
417.0,0.04896
418.0,0.04835
419.0,0.04901
420.0,0.04885
421.0,0.04823
422.0,0.04785
423.0,0.04738
424.0,0.04803
425.0,0.04776
426.0,0.04755
427.0,0.04817
428.0,0.04731
429.0,0.04816
430.0,0.04707
431.0,0.04712
432.0,0.04766
433.0,0.04696
434.0,0.04730
435.0,0.04676
436.0,0.04633
437.0,0.04726
438.0,0.04642
439.0,0.04675
440.0,0.04635
441.0,0.04577
442.0,0.04604
443.0,0.04636
444.0,0.04598
445.0,0.04520
446.0,0.04596
447.0,0.04590
448.0,0.04520
449.0,0.04512
450.0,0.04452
451.0,0.04448
452.0,0.04416
453.0,0.04447
454.0,0.04411
455.0,0.04326
456.0,0.04394
457.0,0.04313
458.0,0.04396
459.0,0.04329
460.0,0.04361
461.0,0.04304
462.0,0.04321
463.0,0.04269
464.0,0.04256
465.0,0.04324
466.0,0.04237
467.0,0.04275
468.0,0.04269
469.0,0.04220
470.0,0.04171
471.0,0.04260
472.0,0.04203
473.0,0.04176
474.0,0.04200
475.0,0.04150
476.0,0.04140
477.0,0.04149
478.0,0.04102
479.0,0.04072
480.0,0.04127
481.0,0.04107
482.0,0.04165
483.0,0.04149
484.0,0.04109
485.0,0.04137
486.0,0.04070
487.0,0.04057
488.0,0.04025
489.0,0.04064
490.0,0.04050
491.0,0.04059
492.0,0.04084
493.0,0.04018
494.0,0.04109
495.0,0.04047
496.0,0.04054
497.0,0.04017
498.0,0.03987
499.0,0.04045
500.0,0.04058
501.0,0.04102
502.0,0.04013
503.0,0.04013
504.0,0.03961
505.0,0.04049
506.0,0.03996
507.0,0.04031
508.0,0.03984
509.0,0.03928
510.0,0.04003
511.0,0.03996
512.0,0.03954
513.0,0.04013
514.0,0.03925
515.0,0.03976
516.0,0.03975
517.0,0.03977
518.0,0.03998
519.0,0.03970
520.0,0.03992
521.0,0.03966
522.0,0.03950
523.0,0.03959
524.0,0.03986
525.0,0.03971
526.0,0.03928
527.0,0.03960
528.0,0.04013
529.0,0.03960
530.0,0.03959
531.0,0.03884
532.0,0.03904
533.0,0.03883
534.0,0.03810
535.0,0.03855
536.0,0.03902
537.0,0.03961
538.0,0.03885
539.0,0.03928
540.0,0.03894
541.0,0.03865
542.0,0.03818
543.0,0.03786
544.0,0.03790
545.0,0.03861
546.0,0.03868
547.0,0.03796
548.0,0.03813
549.0,0.03885
550.0,0.03818
551.0,0.03814
552.0,0.03796
553.0,0.03818
554.0,0.03856
555.0,0.03818
556.0,0.03811
557.0,0.03777
558.0,0.03845
559.0,0.03824
560.0,0.03813
561.0,0.03833
562.0,0.03763
563.0,0.03776
564.0,0.03801
565.0,0.03796
566.0,0.03804
567.0,0.03813
568.0,0.03810
569.0,0.03756
570.0,0.03821
571.0,0.03857
572.0,0.03822
573.0,0.03811
574.0,0.03800
575.0,0.03798
576.0,0.03794
577.0,0.03810
578.0,0.03835
579.0,0.03814
580.0,0.03793
581.0,0.03817
582.0,0.03856
583.0,0.03805
584.0,0.03851
585.0,0.03816
586.0,0.03815
587.0,0.03768
588.0,0.03861
589.0,0.03877
590.0,0.03861
591.0,0.03795
592.0,0.03841
593.0,0.03871
594.0,0.03818
595.0,0.03829
596.0,0.03844
597.0,0.03900
598.0,0.03811
599.0,0.03895
600.0,0.03872
601.0,0.03798
602.0,0.03826
603.0,0.03853
604.0,0.03906
605.0,0.03831
606.0,0.03889
607.0,0.03862
608.0,0.03918
609.0,0.03925
610.0,0.03901
611.0,0.03919
612.0,0.03861
613.0,0.03845
614.0,0.03872
615.0,0.03893
616.0,0.03871
617.0,0.03871
618.0,0.03923
619.0,0.03895
620.0,0.03877
621.0,0.03826
622.0,0.03927
623.0,0.03890
624.0,0.03865
625.0,0.03876
626.0,0.03934
627.0,0.03928
628.0,0.03912
629.0,0.03920
630.0,0.03887
631.0,0.03871
632.0,0.03930
633.0,0.03915
634.0,0.03861
635.0,0.03856
636.0,0.03914
637.0,0.03893
638.0,0.03874
639.0,0.03882
640.0,0.03943
641.0,0.03915
642.0,0.03908
643.0,0.03836
644.0,0.03945
645.0,0.03928
646.0,0.03978
647.0,0.03929
648.0,0.03970
649.0,0.03899
650.0,0.03914
651.0,0.03972
652.0,0.03928
653.0,0.03899
654.0,0.03945
655.0,0.04012
656.0,0.03952
657.0,0.03958
658.0,0.03975
659.0,0.03983
660.0,0.03980
661.0,0.04009
662.0,0.04002
663.0,0.03982
664.0,0.03992
665.0,0.03997
666.0,0.03980
667.0,0.03969
668.0,0.04023
669.0,0.03997
670.0,0.03977
671.0,0.03965
672.0,0.04040
673.0,0.04008
674.0,0.03980
675.0,0.04004
676.0,0.04007
677.0,0.04014
678.0,0.04049
679.0,0.04065
680.0,0.03967
681.0,0.04047
682.0,0.04038
683.0,0.04072
684.0,0.04044
685.0,0.04070
686.0,0.04037
687.0,0.04050
688.0,0.04090
689.0,0.04055
690.0,0.04076
691.0,0.04088
692.0,0.04037
693.0,0.04101
694.0,0.04120
695.0,0.04089
696.0,0.04123
697.0,0.04156
698.0,0.04113
699.0,0.04152
700.0,0.04152
701.0,0.04163
702.0,0.04177
703.0,0.04190
704.0,0.04169
705.0,0.04180
706.0,0.04208
707.0,0.04303
708.0,0.04220
709.0,0.04290
710.0,0.04223
711.0,0.04312
712.0,0.04323
713.0,0.04388
714.0,0.04411
715.0,0.04409
716.0,0.04433
717.0,0.04468
718.0,0.04432
719.0,0.04437
720.0,0.04473
721.0,0.04520
722.0,0.04533
723.0,0.04553
724.0,0.04632
725.0,0.04596
726.0,0.04713
727.0,0.04656
728.0,0.04803
729.0,0.04700
730.0,0.04854
731.0,0.04913
732.0,0.04929
733.0,0.04967
734.0,0.05013
735.0,0.05093
736.0,0.05211
737.0,0.05156
738.0,0.05262
739.0,0.05245
740.0,0.05181
741.0,0.05280
742.0,0.05264
743.0,0.05279
744.0,0.05240
745.0,0.05341
746.0,0.05279
747.0,0.05326
748.0,0.05380
749.0,0.05336
750.0,0.05304
751.0,0.05334
752.0,0.05374
753.0,0.05363
754.0,0.05362
755.0,0.05365
756.0,0.05372
757.0,0.05436
758.0,0.05342
759.0,0.05355
760.0,0.05393
761.0,0.05336
762.0,0.05401
763.0,0.05465
764.0,0.05358
765.0,0.05351
766.0,0.05394
767.0,0.05379
768.0,0.05411
769.0,0.05384
770.0,0.05384
771.0,0.05431
772.0,0.05412
773.0,0.05319
774.0,0.05381
775.0,0.05413
776.0,0.05398
777.0,0.05368
778.0,0.05395
779.0,0.05368
780.0,0.05385
781.0,0.05369
782.0,0.05430
783.0,0.05402
784.0,0.05418
785.0,0.05313
786.0,0.05400
787.0,0.05349
788.0,0.05397
789.0,0.05412
790.0,0.05406
791.0,0.05324
792.0,0.05325
793.0,0.05372
794.0,0.05298
795.0,0.05312
796.0,0.05268
797.0,0.05342
798.0,0.05231
799.0,0.05289
800.0,0.05271
801.0,0.05515
802.0,0.05504
803.0,0.05454
804.0,0.05518
805.0,0.05514
806.0,0.05561
807.0,0.05435
808.0,0.05523
809.0,0.05436
810.0,0.05469
811.0,0.05456
812.0,0.05533
813.0,0.05494
814.0,0.05532
815.0,0.05586
816.0,0.05547
817.0,0.05604
818.0,0.05539
819.0,0.05495
820.0,0.05552
821.0,0.05578
822.0,0.05592
823.0,0.05642
824.0,0.05637
825.0,0.05656
826.0,0.05712
827.0,0.05755
828.0,0.05794
829.0,0.05789
830.0,0.06010
831.0,0.05821
832.0,0.06074
833.0,0.05849
834.0,0.05912
835.0,0.05909
836.0,0.06134
837.0,0.05928
838.0,0.06132
839.0,0.06302
840.0,0.06233
841.0,0.06283
842.0,0.06247
843.0,0.06195
844.0,0.06173
845.0,0.06257
846.0,0.06219
847.0,0.06268
848.0,0.06221
849.0,0.06135
850.0,0.06187
