"m-cresol PANI base-Cit.spc"
"Wavelength nm.","Abs."
200.24004572299486, 0.9816558179568562
200.24004572299486, 0.9622895260638011
200.24004572299486, 0.9429232341707461
200.24004572299486, 0.923556942277691
200.24004572299486, 0.904190650384636
201.20022861497426, 1.0048953682285222
201.20022861497426, 0.8848243584915809
202.16041150695372, 0.865458066598526
202.16041150695372, 0.8460917747054709
202.16041150695372, 0.8267254828124159
203.12059439893312, 0.8054225617300553
203.12059439893312, 0.787024584431653
204.08077729091255, 0.7589434611867233
208.50828729281767, 0.7238689547581902
209.2817679558011, 0.7363494539781591
210.82872928176795, 0.7067082683307331
210.82872928176795, 0.7004680187207488
218.48352067060392, 0.6824466082091558
222.32425223852164, 0.6727634622626284
225.84492284244618, 0.6530743988380224
228.08534959039815, 0.627252676313949
230.005715374357, 0.5982032384743665
231.6060201943227, 0.549141965678627
232.24614212230904, 0.5762547743289042
233.84644694227472, 0.5284845876593683
233.84644694227472, 0.5091182957663133
233.84644694227472, 0.4907203184679111
234.80662983425412, 0.5478508795524234
235.4467517622404, 0.4413362741406207
236.0868736902267, 0.4665124536015922
236.72699561821298, 0.4936252622518693
237.68717851019244, 0.41519178008499646
238.64736140217184, 0.45101942008714824
239.9276052581444, 0.39421163053418684
240.5677271861307, 0.42390661143687114
241.84797104210327, 0.36903545107321534
243.44827586206895, 0.38517402765076114
245.3686416460278, 0.35321964602722034
248.88931224995235, 0.33998601323363276
252.08992188988378, 0.338694927107429
254.97047056582204, 0.31739200602506845
258.81120213373976, 0.3135187476464575
262.65193370165747, 0.3077088600785409
266.4926652695752, 0.299962343321319
270.33339683749284, 0.2951207703480552
274.17412840541056, 0.2893108827801387
278.01485997332827, 0.28543762440152765
281.85559154124593, 0.2844693098068749
285.69632310916364, 0.28350099521222216
289.53705467708136, 0.28059605142826394
293.3777862449991, 0.28059605142826394
297.21851781291673, 0.2815643660229167
301.05924938083444, 0.2844693098068749
304.89998094875216, 0.28543762440152765
308.7407125166699, 0.288342568185486
312.58144408458753, 0.29027919737479146
316.42217565250525, 0.2931841411587497
320.26290722042296, 0.2960890849427079
324.1036387883406, 0.299962343321319
327.94437035625833, 0.3028672871052772
331.78510192417605, 0.30577223088923544
335.62583349209376, 0.3086771746731938
339.4665650600114, 0.311582118457152
343.30729662792913, 0.3144870622411102
347.14802819584685, 0.31545537683576297
350.98875976376456, 0.3135187476464575
358.67022289959993, 0.3202969498090268
362.51095446751765, 0.31932863521437405
366.35168603543536, 0.31932863521437405
370.192417603353, 0.31932863521437405
374.03314917127074, 0.31932863521437405
377.87388073918845, 0.31932863521437405
381.71461230710617, 0.31932863521437405
385.5553438750238, 0.31932863521437405
389.39607544294154, 0.31932863521437405
393.23680701085925, 0.31932863521437405
397.07753857877697, 0.31932863521437405
400.9182701466946, 0.31932863521437405
404.75900171461234, 0.31932863521437405
408.59973328253005, 0.31932863521437405
412.4404648504477, 0.31739200602506845
416.2811964183654, 0.31545537683576297
420.12192798628314, 0.3144870622411102
423.96265955420085, 0.31061380386249926
427.8033911221185, 0.30577223088923544
431.6441226900362, 0.299962343321319
435.48485425795394, 0.2912475119694442
439.64564678986477, 0.2780138791758566
442.8462564297962, 0.26768519016622716
445.4067441417413, 0.25541987196729243
448.60735378167277, 0.24702781214696856
450.84778052962474, 0.2389585238581956
453.728329205563, 0.24186346764215383
454.6885120975424, 0.2186239173704878
458.84930462945323, 0.20829522836085845
462.36997523337783, 0.1953843670988218
466.21070680129554, 0.18763785034159974
470.0514383692132, 0.17892301898972496
473.8921699371309, 0.17214481682715577
477.73290150504863, 0.16536661466458646
481.57363307296635, 0.1614933562859755
485.414364640884, 0.15955672709667001
489.2550962088017, 0.15665178331271168
493.09582777671943, 0.15568346871805894
496.9365593446371, 0.1527785249341007
500.7772909125548, 0.1527785249341007
504.6180224804725, 0.1527785249341007
508.45875404839023, 0.1527785249341007
512.2994856163078, 0.1498735811501425
516.1402171842255, 0.14890526655548975
519.9809487521433, 0.14890526655548975
523.821680320061, 0.14890526655548975
527.6624118879787, 0.14890526655548975
531.5031434558964, 0.14890526655548975
535.3438750238141, 0.14890526655548975
539.1846065917317, 0.14890526655548975
543.0253381596494, 0.14890526655548975
546.8660697275672, 0.15181021033944797
550.7068012954849, 0.1527785249341007
554.5475328634026, 0.1527785249341007
558.3882644313203, 0.1527785249341007
562.228995999238, 0.1527785249341007
566.0697275671557, 0.15374683952875345
569.9104591350733, 0.15665178331271168
573.751190702991, 0.15665178331271168
577.5919222709088, 0.15665178331271168
581.4326538388265, 0.15955672709667001
585.2733854067442, 0.16052504169132276
589.1141169746619, 0.16052504169132276
592.9548485425796, 0.16342998547528098
596.7955801104972, 0.16439830006993372
600.6363116784149, 0.1663349292592392
604.4770432463326, 0.1682715584485447
608.3177748142504, 0.1682715584485447
612.1585063821681, 0.17214481682715577
615.9992379500858, 0.1731131314218085
619.8399695180035, 0.17601807520576673
623.6807010859212, 0.17892301898972496
627.5214326538389, 0.18085964817903055
631.3621642217565, 0.18376459196298878
635.2028957896742, 0.18763785034159974
639.043627357592, 0.18957447953090523
642.8843589255097, 0.1934477379095163
646.7250904934274, 0.19635268169347453
650.5658220613451, 0.2002259400720855
654.4065536292628, 0.20409919845069657
658.2472851971804, 0.20990908601861302
662.0880167650981, 0.2137823443972241
665.9287483330158, 0.21765560277583507
669.7694799009336, 0.22346549034375163
673.6102114688513, 0.2273387487223626
677.450943036769, 0.2341169508849319
681.2916746046867, 0.23799020926354286
685.1324061726044, 0.2457367260207649
688.973137740522, 0.25348324277798684
692.8138693084397, 0.25832481575125066
696.6546008763574, 0.26510301791381985
700.4953324442752, 0.2709129054817364
704.3360640121929, 0.28059605142826394
708.1767955801106, 0.2912475119694442
712.0175271480283, 0.2951207703480552
715.8582587159459, 0.30383560169992996
719.6989902838636, 0.31255043305180474
723.5397218517813, 0.32126526440367953
727.380453419699, 0.32901178116090146
731.2211849876168, 0.3367582979181235
735.0619165555345, 0.34450481467534555
738.9026481234522, 0.3522513314325676
742.7433796913698, 0.3599978481897895
746.5841112592875, 0.36677605035235883
750.4248428272052, 0.37355425251492813
754.2655743951229, 0.38130076927215006
758.1063059630407, 0.3871106568400666
761.9470375309584, 0.3929205444079831
765.7877690988761, 0.3977621173812469
769.6285006667938, 0.40163537575985786
773.4692322347114, 0.40550863413846894
777.3099638026291, 0.40841357792242716
781.1506953705468, 0.41228683630103813
784.9914269384645, 0.4142234654903436
788.8321585063823, 0.4161600946796492
792.6728900743, 0.4161600946796492
796.5136216422177, 0.4180967238689547
800.3543532101353, 0.4200333530582602
804.195084778053, 0.41712840927430195
808.0358163459707, 0.4161600946796492
811.8765479138884, 0.4161600946796492
815.7172794818061, 0.4142234654903436
819.5580110497239, 0.41228683630103813
823.3987426176416, 0.4093818925170799
827.2394741855592, 0.40841357792242716
831.0802057534769, 0.40550863413846894
834.9209373213946, 0.4026036903545106
838.7616688893123, 0.3996987465705524
842.60240045723, 0.39679380278659415
846.4431320251477, 0.3929205444079831
850.2838635930655, 0.3909839152186776
854.1245951609831, 0.38807897143471937
857.9653267289008, 0.38517402765076114
861.8060582968185, 0.3822690838668028
865.6467898647362, 0.3793641400828446
869.4875214326539, 0.3774275108935391
873.3282530005716, 0.3745225671095809
877.1689845684893, 0.37355425251492813
881.0097161364071, 0.37355425251492813
884.8504477043247, 0.37355425251492813
888.6911792722424, 0.3745225671095809
892.5319108401601, 0.3803324546774973
896.692703372071, 0.38130076927215006
899.8933130120023, 0.37419979557802985
903.0939226519338, 0.37161762332562254
