"m-cresol PANI base-Cit.spc"
"Wavelength nm.","Abs."
340.0175804856609, 0.9941232998225902
341.79760465882873, 0.9811502069781195
341.79760465882873, 0.9691750443524542
342.98428744094053, 0.9518775872264932
345.35765300516425, 0.9372412773506801
345.35765300516425, 0.9252661147250147
345.35765300516425, 0.9132909520993495
347.13767717833207, 0.8993199290360734
348.91770135149983, 0.8853489059727971
348.91770135149983, 0.8733737433471318
348.91770135149983, 0.8613985807214666
348.91770135149983, 0.8454316972205795
352.4777496978354, 0.8294648137196925
352.4777496978354, 0.8174896510940272
352.4777496978354, 0.8055144884683619
352.4777496978354, 0.7935393258426966
352.4777496978354, 0.7815641632170314
354.25777387100317, 0.7705869308101715
356.037798044171, 0.7576138379657007
356.037798044171, 0.7456386753400355
356.037798044171, 0.7336635127143702
356.037798044171, 0.7216883500887049
357.81782221733874, 0.7077173270254287
359.59784639050656, 0.6937463039621525
359.59784639050656, 0.6817711413364873
359.59784639050656, 0.669795978710822
359.59784639050656, 0.6578208160851566
360.78452917261836, 0.6405233589591958
363.1578947368421, 0.7735807214665877
363.1578947368421, 0.6258870490833826
363.1578947368421, 0.6139118864577173
363.1578947368421, 0.6019367238320521
363.1578947368421, 0.5899615612063868
364.9379189100099, 0.576988468361916
366.71794308317766, 0.5620195150798344
366.71794308317766, 0.5500443524541692
366.71794308317766, 0.5380691898285038
366.71794308317766, 0.5221023063276168
370.27799142951324, 0.6658042578356003
370.27799142951324, 0.5141188645771733
370.27799142951324, 0.502143701951508
370.27799142951324, 0.4901685393258427
370.27799142951324, 0.47819337670017736
370.27799142951324, 0.4622264931992903
373.8380397758488, 0.4542430514488468
373.8380397758488, 0.4422678888231816
373.8380397758488, 0.43029272619751624
373.8380397758488, 0.418317563571851
377.3980881221844, 0.402350680070964
377.3980881221844, 0.39037551744529864
377.3980881221844, 0.3784003548196334
379.17811229535215, 0.3654272619751626
380.9581364685199, 0.35045830869308103
380.9581364685199, 0.3384831460674157
382.7381606416877, 0.325510053222945
384.5181848148555, 0.31054109994086343
386.2982089880233, 0.2945742164399764
388.07823316119106, 0.27461561206386753
391.63828150752664, 0.2626404494382023
393.4183056806944, 0.24667356593731526
396.97835402703, 0.2267149615612064
400.53840237336556, 0.21074807806031937
404.09845071970113, 0.19677705499704323
411.2185474123723, 0.1848018923713779
418.3386441050434, 0.17582052040212892
425.45874079771454, 0.17482259018332347
432.5788374903857, 0.17881431105854528
439.6989341830568, 0.1867977528089888
446.81903087572795, 0.1977749852158487
453.93912756839904, 0.21274393849793027
461.0592242610702, 0.23070668243642822
466.39929678057354, 0.24667356593731526
471.73936930007693, 0.2606445890005914
475.29941764641245, 0.2726197516262566
478.859465992748, 0.28459491425192196
482.4195143390836, 0.29756800709639264
485.9795626854192, 0.31253696037847434
489.53961103175476, 0.32650798344175047
493.09965937809034, 0.3404790065050266
496.65970772442586, 0.35445002956830274
500.21975607076143, 0.3704169130691899
501.99978024392925, 0.3823920756948551
505.5598285902648, 0.39237137788290954
507.3398527634326, 0.4053444707273802
510.89990110976817, 0.42131135422826727
514.4599494561037, 0.4372782377291543
518.0199978024393, 0.45324512123004146
519.800021975607, 0.46621821407451214
523.3600703219427, 0.47619751626256657
525.1400944951104, 0.4901685393258427
528.700142841446, 0.5101271437019516
532.2601911877816, 0.5290878178592548
534.0402153609493, 0.5420609107037256
537.600263707285, 0.5520402128917801
539.3802878804527, 0.5650133057362507
541.1603120536205, 0.5779863985807214
544.720360399956, 0.5899615612063868
546.5003845731238, 0.6049305144884684
548.2804087462916, 0.6179036073329391
551.8404570926272, 0.6278829095209935
553.620481265795, 0.6418539325842696
557.1805296121305, 0.6598166765227675
558.9605537852983, 0.669795978710822
564.3006263048017, 0.6797752808988764
564.8939676958576, 0.6950768775872265
567.8606746511373, 0.7166986989946778
571.4207229974728, 0.7336635127143702
574.9807713438083, 0.7496303962152573
578.540819690144, 0.7655972797161443
582.1008680364795, 0.7815641632170314
585.660916382815, 0.796533116499113
589.2209647291506, 0.8115020697811945
591.0009889023183, 0.821481371969249
594.561037248654, 0.8334565345949142
598.1210855949896, 0.8454316972205795
601.6811339413251, 0.8574068598462448
607.0212064608285, 0.871377882909521
614.1413031534996, 0.887344766410408
621.2613998461708, 0.8973240685984625
628.3814965388419, 0.9023137196924896
635.501593231513, 0.9023137196924896
642.6216899241841, 0.8973240685984625
649.7417866168553, 0.8843509757539917
656.8618833095264, 0.8693820224719101
660.421931655862, 0.855410999408634
663.9819800021976, 0.8434358367829686
667.5420283485331, 0.8294648137196925
671.1020766948686, 0.8134979302188055
674.6621250412043, 0.796533116499113
678.2221733875398, 0.7775724423418096
681.7822217338754, 0.7576138379657007
685.3422700802109, 0.737655233589592
687.1222942533788, 0.7176966292134832
690.6823425997143, 0.7097131874630396
690.6823425997143, 0.6937463039621525
694.2423909460499, 0.6857628622117091
694.2423909460499, 0.6737876995860437
696.0224151192176, 0.6578208160851566
697.8024392923854, 0.6418539325842696
699.5824634655532, 0.6288808397397989
701.3624876387211, 0.6139118864577173
703.1425118118888, 0.6009387936132466
704.9225359850566, 0.5859698403311651
706.7025601582244, 0.570002956830278
708.4825843313921, 0.5540360733293909
710.2626085045599, 0.5410629804849202
712.0426326777277, 0.5260940272028386
713.8226568508954, 0.5101271437019516
715.6026810240633, 0.4941602602010645
715.6026810240633, 0.4821850975753992
719.1627293703989, 0.47020993494973384
719.1627293703989, 0.4582347723240686
719.1627293703989, 0.4482554701360142
722.7227777167344, 0.43827616794795976
722.7227777167344, 0.42630100532229454
724.5028018899022, 0.41332791247782374
726.2828260630699, 0.39436723832052045
729.8428744094056, 0.38638379657007693
729.8428744094056, 0.3744086339444116
731.6228985825734, 0.3614355410999409
733.4029227557411, 0.3464665878178592
735.1829469289089, 0.33349349497338854
736.9629711020767, 0.31852454169130695
738.7429952752444, 0.30555144884683616
740.5230194484122, 0.2905824955647546
742.3030436215801, 0.2776094027202839
744.0830677947478, 0.2626404494382023
747.6431161410834, 0.25066528681253697
749.4231403142512, 0.23469840331164993
752.9831886605867, 0.21473979893554107
754.7632128337546, 0.20076877587226494
758.3232611800901, 0.1907894736842105
758.3232611800901, 0.1808101714961562
761.8833095264257, 0.16683914843287995
765.4433578727612, 0.15885570668243643
767.223382045929, 0.14588261383796575
770.7834303922646, 0.13091366055588416
776.1235029117679, 0.11494677705499712
779.6835512581035, 0.1069633353045536
785.0236237776069, 0.09099645180366644
790.3636962971102, 0.08101714961561213
802.8238655092847, 0.06704612655233588
808.163938028788, 0.06704612655233588
813.5040105482914, 0.05507096392667066
820.6241072409625, 0.05107924305144884
827.7442039336337, 0.05107924305144884
834.8643006263048, 0.049083382613837934
841.9843973189759, 0.04509166173861634
849.104494011647, 0.04309580130100543
859.7846390506537, 0.03710821998817271
866.9047357433249, 0.0351123595505618
874.024832435996, 0.03311649911295089
881.1449291286672, 0.031120638675339984
888.2650258213383, 0.031120638675339984
895.9784639050654, 0.02712891780011839

