"m-cresol PANI base-Cit.spc"
"Wavelength nm.","Abs."
298.9552884199602, 0.9095174262734584
300.4497102827986, 0.8995331422760471
300.4497102827986, 0.8862207636128316
304.9329758713137, 0.9128455209392623
304.9329758713137, 0.9045252842747528
306.427397734152, 0.9244938522695757
307.9218195969904, 0.9328140889340852
309.41624145982877, 0.9461264675973007
312.4050851855055, 0.957774798927614
315.39392891118223, 0.9694231302579274
321.3716163625357, 0.9752472959230841
325.85488195105074, 0.9660950355921236
328.8437256767275, 0.956110751594712
330.33814753956585, 0.9469584912637515
331.83256940240426, 0.9328140889340852
334.82141312808096, 0.9261578996024776
334.82141312808096, 0.9128455209392623
337.81025685375766, 0.9028612369418508
337.81025685375766, 0.8928769529444394
337.81025685375766, 0.879564574281224
340.7991005794344, 0.8695802902838126
340.7991005794344, 0.8595960062864011
340.7991005794344, 0.8496117222889896
342.2935224422728, 0.8362993436257743
343.7879443051112, 0.822986964962559
343.7879443051112, 0.8130026809651475
343.7879443051112, 0.804682444300638
346.7767880307879, 0.7930341129703244
346.7767880307879, 0.7830498289729131
346.7767880307879, 0.764745308310992
348.27120989362624, 0.7697374503096976
349.7656317564646, 0.7564250716464824
349.7656317564646, 0.746440787649071
351.260053619303, 0.7347924563187576
352.75447548214134, 0.7231441249884442
352.75447548214134, 0.7131598409910327
352.75447548214134, 0.6898631783304059
354.2488973449797, 0.6998474623278174
354.74703796592587, 0.6255200147915319
355.7433192078181, 0.6798788943329943
355.7433192078181, 0.669894610335583
355.7433192078181, 0.6599103263381714
355.7433192078181, 0.6499260423407599
357.2377410706564, 0.6366136636775446
358.7321629334948, 0.6233012850143294
358.7321629334948, 0.6133170010169178
358.7321629334948, 0.6033327170195063
360.64516129032256, 0.5560344827586207
360.7247254172793, 0.5722705001386705
361.7210066591715, 0.5866922436904871
361.93548387096774, 0.5660919540229885
362.71728790106374, 0.5234584450402144
363.2154285220099, 0.5450910603679393
363.2154285220099, 0.5351067763705278
366.2042722476866, 0.513474161042803
366.2042722476866, 0.5043219007118425
369.6912565943095, 0.49239622815937867
372.1819596990401, 0.46688083572154937
372.1819596990401, 0.4568965517241379
372.1819596990401, 0.44691226772672643
372.1819596990401, 0.4294397707312563
372.258064516129, 0.4798850574712644
375.17080342471684, 0.4177914394009429
375.17080342471684, 0.4061431080706295
376.66522528755513, 0.3936627530738651
376.66522528755513, 0.38367846907645364
378.15964715039354, 0.3728621614125912
379.6540690132319, 0.36038180641582684
379.6540690132319, 0.3520615697513173
382.64291273890865, 0.34374133308680777
384.137334601747, 0.33209300175649437
387.1261783274237, 0.3171165757603771
388.62060019026205, 0.3054682444300637
391.6094439159388, 0.29714800776555417
393.10386577877716, 0.28633170010169173
396.09270950445386, 0.2755153924378293
402.0703969558073, 0.2663631321068687
408.0480844071608, 0.2597069427752611
414.02577185851425, 0.2572108717759082
420.0034593098677, 0.2572108717759082
425.98114676122117, 0.2597069427752611
431.95883421257463, 0.26303503744106493
437.9365216639281, 0.2663631321068687
443.91420911528155, 0.2663631321068687
449.891896566635, 0.26220301377461397
455.8695840179885, 0.2522187297772025
460.3528496065035, 0.2405703984468891
463.3416933321803, 0.23058611444947763
467.8249589206954, 0.2197698067856152
471.61290322580646, 0.21264367816091945
476.7741935483871, 0.20545977011494254
476.7741935483871, 0.19683908045977017
476.7741935483871, 0.19683908045977017
478.06451612903226, 0.1954022988505747
481.9354838709678, 0.19109195402298862
488.3870967741936, 0.18534482758620674
495.22269307273206, 0.18843024868262903
502.58064516129036, 0.1954022988505747
511.1631929430079, 0.20396135712304697
513.1557554267924, 0.2128362762318572
518.6353022571998, 0.22476194878432088
524.6129897085532, 0.23973837478043813
530.5906771599066, 0.25388277711010443
536.5683646112601, 0.26553110844041783
539.5572083369368, 0.27717943977073123
545.0367551673442, 0.29049181843394645
551.0144426186977, 0.3060229268743643
554.5014269653204, 0.31878062309327904
557.4902706909972, 0.3287649070906905
560.479114416674, 0.338749191088102
563.4679581423507, 0.3503975224184154
568.947504972758, 0.3659286308588332
572.4344893193809, 0.3803503744106499
575.4233330450576, 0.3919987057409633
578.4121767707343, 0.4036470370712767
581.4010204964111, 0.4169594157344919
586.8805673268184, 0.43027179439770724
590.3675516734412, 0.44691226772672643
593.3563953991179, 0.45856059905703983
596.3452391247947, 0.47020893038735323
599.3340828504714, 0.48352130905056856
604.8136296808788, 0.4968336877137838
608.3006140275015, 0.512642137376352
611.2894577531783, 0.5251224923731164
612.7838796160167, 0.5334427290376259
617.2671452045317, 0.5467551077008412
621.7504107930469, 0.5600674863640566
626.233676381562, 0.57171581769437
627.7280982444004, 0.5800360543588795
630.7169419700771, 0.590020338356291
635.2002075585922, 0.6033327170195063
639.6834731471072, 0.6133170010169178
644.1667387356224, 0.6266293796801331
650.1444261869758, 0.6432698530091523
656.1221136383292, 0.6540861606730147
662.0998010896826, 0.6649024683368772
668.0774885410362, 0.6740547286678377
674.0551759923896, 0.6832069889987982
680.032863443743, 0.688199130997504
686.0105508950965, 0.6923592493297588
691.9882383464501, 0.6931912729962098
697.9659257978035, 0.6923592493297588
703.9436132491569, 0.6890311546639549
709.9213007005103, 0.6832069889987982
715.8989881518637, 0.6748867523342886
721.8766756032173, 0.6632384210039752
727.8543630545707, 0.6499260423407599
733.8320505059241, 0.6366136636775446
736.820894231601, 0.6249653323472313
739.8097379572775, 0.6133170010169178
744.2930035457928, 0.6033327170195063
748.7762691343078, 0.590020338356291
751.7651128599846, 0.5783720070259777
754.7539565856612, 0.5658916520292132
757.742800311338, 0.553411297032449
760.7316440370148, 0.5417629657021356
763.7204877626914, 0.531778681704724
766.7093314883682, 0.5217943977073125
769.698175214045, 0.5093140427105481
772.6870189397216, 0.4968336877137838
775.6758626653984, 0.4851853563834704
778.664706391075, 0.473537025053157
781.6535501167518, 0.4635527410557455
784.6423938424286, 0.4527364333918831
787.6312375681052, 0.4402560783951187
790.620081293782, 0.4269436997319035
793.6089250194586, 0.4169594157344919
798.0645161290324, 0.3994252873563219
801.9354838709678, 0.39655172413793105
805.0661593012196, 0.384787833965055
807.0587217850041, 0.3736941850790422
808.5531436478425, 0.36454192474808167
811.5419873735191, 0.35538966441712116
816.0252529620343, 0.3470694277526115
819.0140966877109, 0.338749191088102
823.4973622762261, 0.3271008597577886
826.4862060019027, 0.31378848109457325
832.4638934532561, 0.3004761024313579
838.4415809046097, 0.2896597947674955
844.4192683559631, 0.27884348710363305
850.3969558073165, 0.2680271794397706
856.37464325867, 0.26053896644171204
862.3523307100236, 0.25388277711010443
868.330018161377, 0.2472265877784967
874.3077056127304, 0.24306646944624188
880.2853930640838, 0.23973837478043813
886.2630805154374, 0.23474623278173234
890.7463461039524, 0.23225016178237945


