"m-cresol PANI base-HCL.spc"
"Wavelength nm.","Abs."
250.0,5.73682
251.0,6.00000
252.0,6.00000
253.0,5.22394
254.0,6.00000
255.0,4.87209
256.0,6.00000
257.0,6.00000
258.0,4.50725
259.0,6.00000
260.0,6.00000
261.0,4.64857
262.0,6.00000
263.0,6.00000
264.0,6.00000
265.0,6.00000
266.0,6.00000
267.0,6.00000
268.0,6.00000
269.0,6.00000
270.0,6.00000
271.0,6.00000
272.0,6.00000
273.0,4.92134
274.0,4.88466
275.0,6.00000
276.0,6.00000
277.0,6.00000
278.0,6.00000
279.0,4.77852
280.0,6.00000
281.0,4.68722
282.0,6.00000
283.0,6.00000
284.0,6.00000
285.0,6.00000
286.0,6.00000
287.0,6.00000
288.0,6.00000
289.0,6.00000
290.0,6.00000
291.0,6.00000
292.0,6.00000
293.0,6.00000
294.0,6.00000
295.0,4.45512
296.0,6.00000
297.0,6.00000
298.0,4.39806
299.0,6.00000
300.0,6.00000
301.0,6.00000
302.0,6.00000
303.0,5.52237
304.0,6.00000
305.0,6.00000
306.0,6.00000
307.0,5.22527
308.0,6.00000
309.0,6.00000
310.0,4.41330
311.0,3.98566
312.0,3.86414
313.0,4.14117
314.0,6.00000
315.0,3.77828
316.0,3.71921
317.0,4.16770
318.0,3.95198
319.0,3.67551
320.0,3.53988
321.0,3.56215
322.0,3.59500
323.0,3.37999
324.0,3.48655
325.0,3.29425
326.0,3.30612
327.0,3.45486
328.0,3.18336
329.0,3.19116
330.0,3.14506
331.0,3.07031
332.0,3.02809
333.0,2.98975
334.0,2.91256
335.0,2.92510
336.0,2.88687
337.0,2.83990
338.0,2.82648
339.0,2.79780
340.0,2.78757
341.0,2.74970
342.0,2.70814
343.0,2.68121
344.0,2.64436
345.0,2.64141
346.0,2.61384
347.0,2.57214
348.0,2.53956
349.0,2.51518
350.0,2.48069
351.0,2.45420
352.0,2.42265
353.0,2.38863
354.0,2.36450
355.0,2.33025
356.0,2.30446
357.0,2.27340
358.0,2.24445
359.0,2.21823
360.0,2.18875
361.0,2.16108
362.0,2.12785
363.0,2.10204
364.0,2.07816
365.0,2.04342
366.0,2.01578
367.0,1.99456
368.0,1.96611
369.0,1.94197
370.0,1.91130
371.0,1.89014
372.0,1.86815
373.0,1.84408
374.0,1.82371
375.0,1.79861
376.0,1.77885
377.0,1.75880
378.0,1.73849
379.0,1.71889
380.0,1.70004
381.0,1.67995
382.0,1.66053
383.0,1.64139
384.0,1.62190
385.0,1.60467
386.0,1.58675
387.0,1.56964
388.0,1.55212
389.0,1.53534
390.0,1.51662
391.0,1.50131
392.0,1.48416
393.0,1.46814
394.0,1.45268
395.0,1.43815
396.0,1.42483
397.0,1.41156
398.0,1.39950
399.0,1.38961
400.0,1.37861
401.0,1.36952
402.0,1.36042
403.0,1.35368
404.0,1.34607
405.0,1.34103
406.0,1.33395
407.0,1.32867
408.0,1.32435
409.0,1.32021
410.0,1.31533
411.0,1.31176
412.0,1.30782
413.0,1.30441
414.0,1.30288
415.0,1.29784
416.0,1.29611
417.0,1.29180
418.0,1.28900
419.0,1.28627
420.0,1.28261
421.0,1.27994
422.0,1.27775
423.0,1.27417
424.0,1.27248
425.0,1.26994
426.0,1.26810
427.0,1.26538
428.0,1.26409
429.0,1.26229
430.0,1.25991
431.0,1.25899
432.0,1.25619
433.0,1.25460
434.0,1.25175
435.0,1.24978
436.0,1.24602
437.0,1.24338
438.0,1.24011
439.0,1.23564
440.0,1.22991
441.0,1.22557
442.0,1.21942
443.0,1.21141
444.0,1.20403
445.0,1.19523
446.0,1.18585
447.0,1.17633
448.0,1.16528
449.0,1.15356
450.0,1.14158
451.0,1.12886
452.0,1.11620
453.0,1.10280
454.0,1.08774
455.0,1.07416
456.0,1.06019
457.0,1.04683
458.0,1.03343
459.0,1.02020
460.0,1.00782
461.0,0.99435
462.0,0.98241
463.0,0.97087
464.0,0.95909
465.0,0.94969
466.0,0.93931
467.0,0.92967
468.0,0.92030
469.0,0.91213
470.0,0.90376
471.0,0.89570
472.0,0.88784
473.0,0.88008
474.0,0.87283
475.0,0.86502
476.0,0.85820
477.0,0.85202
478.0,0.84507
479.0,0.83778
480.0,0.83124
481.0,0.82549
482.0,0.81860
483.0,0.81360
484.0,0.80922
485.0,0.80399
486.0,0.79865
487.0,0.79383
488.0,0.78997
489.0,0.78553
490.0,0.78222
491.0,0.77800
492.0,0.77412
493.0,0.77102
494.0,0.76803
495.0,0.76482
496.0,0.76313
497.0,0.75989
498.0,0.75768
499.0,0.75499
500.0,0.75341
501.0,0.75082
502.0,0.74832
503.0,0.74616
504.0,0.74511
505.0,0.74320
506.0,0.74207
507.0,0.74003
508.0,0.73896
509.0,0.73843
510.0,0.73648
511.0,0.73623
512.0,0.73492
513.0,0.73416
514.0,0.73320
515.0,0.73265
516.0,0.73201
517.0,0.73170
518.0,0.73117
519.0,0.73051
520.0,0.72976
521.0,0.73033
522.0,0.73013
523.0,0.73016
524.0,0.73063
525.0,0.73034
526.0,0.73079
527.0,0.73050
528.0,0.73148
529.0,0.73193
530.0,0.73288
531.0,0.73335
532.0,0.73521
533.0,0.73544
534.0,0.73668
535.0,0.73748
536.0,0.73930
537.0,0.74048
538.0,0.74212
539.0,0.74347
540.0,0.74467
541.0,0.74637
542.0,0.74806
543.0,0.74979
544.0,0.75202
545.0,0.75384
546.0,0.75594
547.0,0.75886
548.0,0.76047
549.0,0.76353
550.0,0.76468
551.0,0.76756
552.0,0.76995
553.0,0.77289
554.0,0.77630
555.0,0.77914
556.0,0.78082
557.0,0.78363
558.0,0.78792
559.0,0.79023
560.0,0.79279
561.0,0.79770
562.0,0.79984
563.0,0.80320
564.0,0.80683
565.0,0.81037
566.0,0.81388
567.0,0.81764
568.0,0.82190
569.0,0.82516
570.0,0.82799
571.0,0.83294
572.0,0.83610
573.0,0.83996
574.0,0.84356
575.0,0.84810
576.0,0.85115
577.0,0.85595
578.0,0.85989
579.0,0.86405
580.0,0.86800
581.0,0.87289
582.0,0.87615
583.0,0.88131
584.0,0.88627
585.0,0.89044
586.0,0.89456
587.0,0.89950
588.0,0.90360
589.0,0.90803
590.0,0.91307
591.0,0.91761
592.0,0.92176
593.0,0.92657
594.0,0.93147
595.0,0.93475
596.0,0.94000
597.0,0.94440
598.0,0.94913
599.0,0.95314
600.0,0.95894
601.0,0.96265
602.0,0.96793
603.0,0.97234
604.0,0.97653
605.0,0.98086
606.0,0.98591
607.0,0.99014
608.0,0.99530
609.0,0.99973
610.0,1.00373
611.0,1.00833
612.0,1.01362
613.0,1.01716
614.0,1.02206
615.0,1.02546
616.0,1.02979
617.0,1.03423
618.0,1.03775
619.0,1.04240
620.0,1.04547
621.0,1.04972
622.0,1.05305
623.0,1.05813
624.0,1.06228
625.0,1.06580
626.0,1.06955
627.0,1.07343
628.0,1.07777
629.0,1.08087
630.0,1.08430
631.0,1.08835
632.0,1.09155
633.0,1.09439
634.0,1.09854
635.0,1.10150
636.0,1.10525
637.0,1.10818
638.0,1.11180
639.0,1.11467
640.0,1.11806
641.0,1.12097
642.0,1.12377
643.0,1.12595
644.0,1.12983
645.0,1.13268
646.0,1.13485
647.0,1.13768
648.0,1.14108
649.0,1.14365
650.0,1.14571
651.0,1.14774
652.0,1.15064
653.0,1.15284
654.0,1.15475
655.0,1.15666
656.0,1.15866
657.0,1.16161
658.0,1.16230
659.0,1.16468
660.0,1.16616
661.0,1.16795
662.0,1.16830
663.0,1.17039
664.0,1.17103
665.0,1.17313
666.0,1.17356
667.0,1.17566
668.0,1.17606
669.0,1.17670
670.0,1.17729
671.0,1.17834
672.0,1.17836
673.0,1.18056
674.0,1.17965
675.0,1.18006
676.0,1.18076
677.0,1.18071
678.0,1.18015
679.0,1.17934
680.0,1.17962
681.0,1.17886
682.0,1.17912
683.0,1.17852
684.0,1.17783
685.0,1.17658
686.0,1.17691
687.0,1.17495
688.0,1.17334
689.0,1.17356
690.0,1.17276
691.0,1.17096
692.0,1.16927
693.0,1.16824
694.0,1.16603
695.0,1.16359
696.0,1.16214
697.0,1.16064
698.0,1.15797
699.0,1.15593
700.0,1.15358
701.0,1.15307
702.0,1.14979
703.0,1.14727
704.0,1.14486
705.0,1.14142
706.0,1.13881
707.0,1.13560
708.0,1.13289
709.0,1.13002
710.0,1.12718
711.0,1.12381
712.0,1.12002
713.0,1.11665
714.0,1.11439
715.0,1.11046
716.0,1.10630
717.0,1.10207
718.0,1.09762
719.0,1.09314
720.0,1.08903
721.0,1.08411
722.0,1.07969
723.0,1.07664
724.0,1.07242
725.0,1.06620
726.0,1.06291
727.0,1.05688
728.0,1.05247
729.0,1.04809
730.0,1.04303
731.0,1.03845
732.0,1.03386
733.0,1.02962
734.0,1.02451
735.0,1.01911
736.0,1.01256
737.0,1.00850
738.0,1.00381
739.0,0.99854
740.0,0.99330
741.0,0.98817
742.0,0.98324
743.0,0.97764
744.0,0.97342
745.0,0.96560
746.0,0.95991
747.0,0.95621
748.0,0.94970
749.0,0.94481
750.0,0.93877
751.0,0.93270
752.0,0.92757
753.0,0.92266
754.0,0.91579
755.0,0.91113
756.0,0.90577
757.0,0.89991
758.0,0.89534
759.0,0.88919
760.0,0.88396
761.0,0.87851
762.0,0.87195
763.0,0.86630
764.0,0.86184
765.0,0.85579
766.0,0.85049
767.0,0.84459
768.0,0.84039
769.0,0.83576
770.0,0.82824
771.0,0.82248
772.0,0.81841
773.0,0.81181
774.0,0.80799
775.0,0.80194
776.0,0.79690
777.0,0.79221
778.0,0.78726
779.0,0.78105
780.0,0.77686
781.0,0.77082
782.0,0.76762
783.0,0.76216
784.0,0.75752
785.0,0.75240
786.0,0.74851
787.0,0.74326
788.0,0.73849
789.0,0.73476
790.0,0.72988
791.0,0.72540
792.0,0.71956
793.0,0.71619
794.0,0.71287
795.0,0.70724
796.0,0.70367
797.0,0.69970
798.0,0.69612
799.0,0.69024
800.0,0.68803
801.0,0.69256
802.0,0.68942
803.0,0.68560
804.0,0.68197
805.0,0.67811
806.0,0.67437
807.0,0.67089
808.0,0.66779
809.0,0.66469
810.0,0.66162
811.0,0.65730
812.0,0.65434
813.0,0.65130
814.0,0.64657
815.0,0.64494
816.0,0.64191
817.0,0.63857
818.0,0.63547
819.0,0.63342
820.0,0.62961
821.0,0.62726
822.0,0.62443
823.0,0.62071
824.0,0.61823
825.0,0.61634
826.0,0.61372
827.0,0.61119
828.0,0.60799
829.0,0.60635
830.0,0.60405
831.0,0.59994
832.0,0.59803
833.0,0.59741
834.0,0.60118
835.0,0.59777
836.0,0.59551
837.0,0.59383
838.0,0.58765
839.0,0.58665
840.0,0.58967
841.0,0.58740
842.0,0.58413
843.0,0.58036
844.0,0.58130
845.0,0.57983
846.0,0.57870
847.0,0.57953
848.0,0.57510
849.0,0.57404
850.0,0.57385
