"m-cresol PANI base-Cit.spc"
"Wavelength nm.","Abs."
250.0,6.00000
251.0,5.18554
252.0,5.26187
253.0,6.00000
254.0,6.00000
255.0,4.76772
256.0,6.00000
257.0,6.00000
258.0,6.00000
259.0,6.00000
260.0,6.00000
261.0,6.00000
262.0,6.00000
263.0,6.00000
264.0,6.00000
265.0,5.01245
266.0,6.00000
267.0,4.80957
268.0,6.00000
269.0,4.94758
270.0,6.00000
271.0,6.00000
272.0,6.00000
273.0,6.00000
274.0,4.19638
275.0,6.00000
276.0,6.00000
277.0,6.00000
278.0,6.00000
279.0,5.90344
280.0,6.00000
281.0,6.00000
282.0,6.00000
283.0,4.50867
284.0,6.00000
285.0,4.97546
286.0,4.70177
287.0,6.00000
288.0,6.00000
289.0,4.67208
290.0,6.00000
291.0,6.00000
292.0,6.00000
293.0,6.00000
294.0,4.92816
295.0,6.00000
296.0,6.00000
297.0,4.14234
298.0,4.61020
299.0,6.00000
300.0,6.00000
301.0,4.72856
302.0,4.38965
303.0,4.35211
304.0,6.00000
305.0,4.64505
306.0,6.00000
307.0,6.00000
308.0,6.00000
309.0,4.74070
310.0,6.00000
311.0,6.00000
312.0,6.00000
313.0,4.24015
314.0,6.00000
315.0,4.72606
316.0,6.00000
317.0,6.00000
318.0,4.41590
319.0,6.00000
320.0,6.00000
321.0,4.21077
322.0,6.00000
323.0,4.34177
324.0,5.07244
325.0,4.61739
326.0,4.21284
327.0,4.48638
328.0,6.00000
329.0,6.00000
330.0,4.41051
331.0,4.45199
332.0,6.00000
333.0,4.36049
334.0,4.01816
335.0,4.15972
336.0,4.10535
337.0,3.96581
338.0,4.11162
339.0,3.84465
340.0,4.33592
341.0,4.14755
342.0,3.78435
343.0,3.83824
344.0,3.71162
345.0,3.66876
346.0,3.79249
347.0,3.92179
348.0,3.63065
349.0,3.54242
350.0,3.71928
351.0,3.62592
352.0,3.61420
353.0,3.57617
354.0,3.69409
355.0,3.47209
356.0,3.50036
357.0,3.41405
358.0,3.42141
359.0,3.41990
360.0,3.37257
361.0,3.35654
362.0,3.26080
363.0,3.38963
364.0,3.31044
365.0,3.30622
366.0,3.31671
367.0,3.20854
368.0,3.21367
369.0,3.17637
370.0,3.20127
371.0,3.15734
372.0,3.15060
373.0,3.13080
374.0,3.09652
375.0,3.13159
376.0,3.07318
377.0,3.02934
378.0,3.03904
379.0,3.07212
380.0,3.01472
381.0,2.97929
382.0,3.01062
383.0,2.98480
384.0,2.99968
385.0,2.96461
386.0,2.94927
387.0,2.93158
388.0,2.89988
389.0,2.91992
390.0,2.87099
391.0,2.90223
392.0,2.88343
393.0,2.85855
394.0,2.86329
395.0,2.82498
396.0,2.80277
397.0,2.79638
398.0,2.79318
399.0,2.77642
400.0,2.77076
401.0,2.76644
402.0,2.74223
403.0,2.73360
404.0,2.71831
405.0,2.71251
406.0,2.69761
407.0,2.67781
408.0,2.68232
409.0,2.67811
410.0,2.66023
411.0,2.65164
412.0,2.63683
413.0,2.62995
414.0,2.61829
415.0,2.61186
416.0,2.61618
417.0,2.59088
418.0,2.59538
419.0,2.57541
420.0,2.55490
421.0,2.53791
422.0,2.54143
423.0,2.52755
424.0,2.51949
425.0,2.51158
426.0,2.49795
427.0,2.47263
428.0,2.46496
429.0,2.44464
430.0,2.43927
431.0,2.42762
432.0,2.41191
433.0,2.39999
434.0,2.38031
435.0,2.36916
436.0,2.34118
437.0,2.34213
438.0,2.32807
439.0,2.30696
440.0,2.29026
441.0,2.27677
442.0,2.26302
443.0,2.23978
444.0,2.21546
445.0,2.20124
446.0,2.18028
447.0,2.16014
448.0,2.13453
449.0,2.11072
450.0,2.08649
451.0,2.06622
452.0,2.03696
453.0,2.01321
454.0,1.98736
455.0,1.96332
456.0,1.93304
457.0,1.90842
458.0,1.87959
459.0,1.85608
460.0,1.82939
461.0,1.80708
462.0,1.78221
463.0,1.75789
464.0,1.73513
465.0,1.71347
466.0,1.68965
467.0,1.66980
468.0,1.64873
469.0,1.62758
470.0,1.61050
471.0,1.59147
472.0,1.57359
473.0,1.55651
474.0,1.53789
475.0,1.52172
476.0,1.50743
477.0,1.49250
478.0,1.47716
479.0,1.46255
480.0,1.44863
481.0,1.43547
482.0,1.42203
483.0,1.41003
484.0,1.39846
485.0,1.38679
486.0,1.37426
487.0,1.36342
488.0,1.35442
489.0,1.34486
490.0,1.33570
491.0,1.32683
492.0,1.31750
493.0,1.31055
494.0,1.30157
495.0,1.29398
496.0,1.28770
497.0,1.28055
498.0,1.27227
499.0,1.26830
500.0,1.26140
501.0,1.25632
502.0,1.24939
503.0,1.24486
504.0,1.23826
505.0,1.23330
506.0,1.22918
507.0,1.22394
508.0,1.21913
509.0,1.21527
510.0,1.21112
511.0,1.20714
512.0,1.20487
513.0,1.20125
514.0,1.19744
515.0,1.19472
516.0,1.19199
517.0,1.18930
518.0,1.18626
519.0,1.18429
520.0,1.18260
521.0,1.18112
522.0,1.17866
523.0,1.17614
524.0,1.17540
525.0,1.17320
526.0,1.17207
527.0,1.17044
528.0,1.17009
529.0,1.16802
530.0,1.16794
531.0,1.16694
532.0,1.16757
533.0,1.16638
534.0,1.16613
535.0,1.16577
536.0,1.16647
537.0,1.16593
538.0,1.16613
539.0,1.16690
540.0,1.16647
541.0,1.16781
542.0,1.16717
543.0,1.16845
544.0,1.16983
545.0,1.17058
546.0,1.17178
547.0,1.17376
548.0,1.17376
549.0,1.17600
550.0,1.17746
551.0,1.17836
552.0,1.17986
553.0,1.18205
554.0,1.18367
555.0,1.18475
556.0,1.18628
557.0,1.18815
558.0,1.19125
559.0,1.19183
560.0,1.19314
561.0,1.19545
562.0,1.19733
563.0,1.19911
564.0,1.20011
565.0,1.20333
566.0,1.20498
567.0,1.20710
568.0,1.20886
569.0,1.21115
570.0,1.21313
571.0,1.21677
572.0,1.21769
573.0,1.21976
574.0,1.22306
575.0,1.22482
576.0,1.22736
577.0,1.22984
578.0,1.23189
579.0,1.23497
580.0,1.23671
581.0,1.24037
582.0,1.24160
583.0,1.24322
584.0,1.24705
585.0,1.24944
586.0,1.25148
587.0,1.25400
588.0,1.25640
589.0,1.25878
590.0,1.26141
591.0,1.26429
592.0,1.26636
593.0,1.26917
594.0,1.27173
595.0,1.27291
596.0,1.27619
597.0,1.27829
598.0,1.28142
599.0,1.28274
600.0,1.28652
601.0,1.28787
602.0,1.29063
603.0,1.29265
604.0,1.29505
605.0,1.29709
606.0,1.29929
607.0,1.30193
608.0,1.30431
609.0,1.30722
610.0,1.30895
611.0,1.31066
612.0,1.31334
613.0,1.31498
614.0,1.31739
615.0,1.31883
616.0,1.32205
617.0,1.32335
618.0,1.32528
619.0,1.32869
620.0,1.33039
621.0,1.33203
622.0,1.33325
623.0,1.33536
624.0,1.33765
625.0,1.33977
626.0,1.34122
627.0,1.34314
628.0,1.34515
629.0,1.34572
630.0,1.34807
631.0,1.34920
632.0,1.35050
633.0,1.35222
634.0,1.35407
635.0,1.35400
636.0,1.35623
637.0,1.35645
638.0,1.35850
639.0,1.35933
640.0,1.35955
641.0,1.36070
642.0,1.36153
643.0,1.36315
644.0,1.36378
645.0,1.36582
646.0,1.36696
647.0,1.36603
648.0,1.36742
649.0,1.36838
650.0,1.36931
651.0,1.36785
652.0,1.37028
653.0,1.37106
654.0,1.36958
655.0,1.37209
656.0,1.37191
657.0,1.37248
658.0,1.37273
659.0,1.37344
660.0,1.37271
661.0,1.37379
662.0,1.37394
663.0,1.37375
664.0,1.37358
665.0,1.37410
666.0,1.37325
667.0,1.37390
668.0,1.37248
669.0,1.37274
670.0,1.37227
671.0,1.37144
672.0,1.36989
673.0,1.36982
674.0,1.36899
675.0,1.36845
676.0,1.36772
677.0,1.36592
678.0,1.36598
679.0,1.36355
680.0,1.36131
681.0,1.36229
682.0,1.36042
683.0,1.35865
684.0,1.35651
685.0,1.35658
686.0,1.35482
687.0,1.35385
688.0,1.35244
689.0,1.35056
690.0,1.34782
691.0,1.34647
692.0,1.34535
693.0,1.34347
694.0,1.33962
695.0,1.33848
696.0,1.33520
697.0,1.33458
698.0,1.33247
699.0,1.33020
700.0,1.32695
701.0,1.32483
702.0,1.32180
703.0,1.32027
704.0,1.31781
705.0,1.31449
706.0,1.31190
707.0,1.30969
708.0,1.30603
709.0,1.30557
710.0,1.30033
711.0,1.29785
712.0,1.29447
713.0,1.29162
714.0,1.28910
715.0,1.28508
716.0,1.28169
717.0,1.27728
718.0,1.27501
719.0,1.27007
720.0,1.26655
721.0,1.26275
722.0,1.25876
723.0,1.25575
724.0,1.25159
725.0,1.24794
726.0,1.24444
727.0,1.24076
728.0,1.23679
729.0,1.23240
730.0,1.22865
731.0,1.22467
732.0,1.22034
733.0,1.21598
734.0,1.21216
735.0,1.21001
736.0,1.20520
737.0,1.20111
738.0,1.19705
739.0,1.19210
740.0,1.18807
741.0,1.18500
742.0,1.17898
743.0,1.17655
744.0,1.17250
745.0,1.16812
746.0,1.16444
747.0,1.16032
748.0,1.15468
749.0,1.15028
750.0,1.14588
751.0,1.14121
752.0,1.13916
753.0,1.13414
754.0,1.12950
755.0,1.12623
756.0,1.12177
757.0,1.11708
758.0,1.11244
759.0,1.10856
760.0,1.10503
761.0,1.10104
762.0,1.09663
763.0,1.09335
764.0,1.08827
765.0,1.08501
766.0,1.08026
767.0,1.07534
768.0,1.07187
769.0,1.06859
770.0,1.06354
771.0,1.05984
772.0,1.05535
773.0,1.05115
774.0,1.04861
775.0,1.04281
776.0,1.03921
777.0,1.03571
778.0,1.03122
779.0,1.02708
780.0,1.02370
781.0,1.01975
782.0,1.01611
783.0,1.01282
784.0,1.00756
785.0,1.00442
786.0,1.00039
787.0,0.99710
788.0,0.99412
789.0,0.98836
790.0,0.98549
791.0,0.98296
792.0,0.97939
793.0,0.97586
794.0,0.97214
795.0,0.96954
796.0,0.96553
797.0,0.96335
798.0,0.96077
799.0,0.95512
800.0,0.95205
801.0,0.95306
802.0,0.94999
803.0,0.94571
804.0,0.94326
805.0,0.94113
806.0,0.93711
807.0,0.93568
808.0,0.93149
809.0,0.92883
810.0,0.92641
811.0,0.92317
812.0,0.91969
813.0,0.91761
814.0,0.91558
815.0,0.91297
816.0,0.91052
817.0,0.90713
818.0,0.90564
819.0,0.90346
820.0,0.90134
821.0,0.89910
822.0,0.89698
823.0,0.89301
824.0,0.89131
825.0,0.89010
826.0,0.88747
827.0,0.88561
828.0,0.88209
829.0,0.88258
830.0,0.88035
831.0,0.88406
832.0,0.87738
833.0,0.88008
834.0,0.87663
835.0,0.86772
836.0,0.86499
837.0,0.87038
838.0,0.86832
839.0,0.86648
840.0,0.86751
841.0,0.86365
842.0,0.85909
843.0,0.85879
844.0,0.86552
845.0,0.85393
846.0,0.85665
847.0,0.85836
848.0,0.85732
849.0,0.85274
850.0,0.85894
