"PANI base-H3PO4 sin agitar.spc"
"Wavelength nm.","Abs."
250.0,4.51393
251.0,6.00000
252.0,6.00000
253.0,5.30232
254.0,6.00000
255.0,6.00000
256.0,6.00000
257.0,6.00000
258.0,6.00000
259.0,6.00000
260.0,6.00000
261.0,6.00000
262.0,6.00000
263.0,6.00000
264.0,6.00000
265.0,6.00000
266.0,6.00000
267.0,6.00000
268.0,6.00000
269.0,6.00000
270.0,6.00000
271.0,6.00000
272.0,6.00000
273.0,6.00000
274.0,6.00000
275.0,6.00000
276.0,6.00000
277.0,6.00000
278.0,6.00000
279.0,6.00000
280.0,6.00000
281.0,6.00000
282.0,4.39469
283.0,6.00000
284.0,4.20275
285.0,6.00000
286.0,6.00000
287.0,6.00000
288.0,4.43273
289.0,3.53497
290.0,2.92035
291.0,2.61911
292.0,2.41534
293.0,2.26188
294.0,2.15368
295.0,2.06627
296.0,2.01004
297.0,1.95419
298.0,1.91094
299.0,1.86473
300.0,1.82401
301.0,1.78697
302.0,1.74828
303.0,1.71952
304.0,1.69094
305.0,1.66738
306.0,1.63994
307.0,1.61958
308.0,1.60139
309.0,1.58445
310.0,1.57194
311.0,1.55913
312.0,1.54516
313.0,1.53453
314.0,1.52356
315.0,1.51267
316.0,1.51130
317.0,1.50221
318.0,1.49427
319.0,1.49133
320.0,1.48494
321.0,1.47641
322.0,1.47322
323.0,1.46843
324.0,1.46428
325.0,1.45991
326.0,1.45603
327.0,1.44950
328.0,1.44322
329.0,1.43593
330.0,1.42979
331.0,1.42313
332.0,1.41363
333.0,1.40343
334.0,1.39359
335.0,1.38530
336.0,1.37559
337.0,1.36376
338.0,1.35105
339.0,1.33998
340.0,1.32536
341.0,1.31181
342.0,1.29924
343.0,1.28418
344.0,1.26844
345.0,1.25254
346.0,1.23778
347.0,1.22210
348.0,1.20528
349.0,1.18692
350.0,1.16993
351.0,1.15294
352.0,1.13481
353.0,1.11735
354.0,1.09836
355.0,1.08041
356.0,1.06042
357.0,1.04105
358.0,1.02180
359.0,1.00329
360.0,0.98449
361.0,0.96642
362.0,0.95032
363.0,0.93206
364.0,0.91296
365.0,0.89583
366.0,0.87587
367.0,0.85822
368.0,0.84218
369.0,0.82556
370.0,0.80941
371.0,0.79347
372.0,0.77880
373.0,0.76324
374.0,0.74812
375.0,0.73489
376.0,0.72236
377.0,0.70912
378.0,0.69589
379.0,0.68418
380.0,0.67050
381.0,0.65819
382.0,0.64728
383.0,0.63569
384.0,0.62381
385.0,0.61316
386.0,0.60382
387.0,0.59456
388.0,0.58537
389.0,0.57630
390.0,0.56678
391.0,0.55844
392.0,0.55113
393.0,0.54259
394.0,0.53499
395.0,0.52788
396.0,0.52085
397.0,0.51379
398.0,0.50769
399.0,0.50223
400.0,0.49604
401.0,0.49046
402.0,0.48568
403.0,0.48073
404.0,0.47515
405.0,0.47015
406.0,0.46592
407.0,0.46115
408.0,0.45807
409.0,0.45430
410.0,0.44958
411.0,0.44642
412.0,0.44316
413.0,0.44005
414.0,0.43728
415.0,0.43394
416.0,0.43165
417.0,0.42852
418.0,0.42713
419.0,0.42481
420.0,0.42298
421.0,0.41977
422.0,0.41791
423.0,0.41602
424.0,0.41468
425.0,0.41257
426.0,0.41135
427.0,0.41065
428.0,0.40897
429.0,0.40798
430.0,0.40700
431.0,0.40653
432.0,0.40468
433.0,0.40417
434.0,0.40432
435.0,0.40396
436.0,0.40265
437.0,0.40244
438.0,0.40262
439.0,0.40203
440.0,0.40258
441.0,0.40203
442.0,0.40217
443.0,0.40257
444.0,0.40208
445.0,0.40266
446.0,0.40346
447.0,0.40434
448.0,0.40443
449.0,0.40453
450.0,0.40503
451.0,0.40596
452.0,0.40689
453.0,0.40798
454.0,0.40778
455.0,0.40917
456.0,0.41006
457.0,0.41169
458.0,0.41244
459.0,0.41408
460.0,0.41494
461.0,0.41582
462.0,0.41840
463.0,0.41944
464.0,0.42061
465.0,0.42296
466.0,0.42408
467.0,0.42604
468.0,0.42771
469.0,0.43000
470.0,0.43190
471.0,0.43400
472.0,0.43592
473.0,0.43763
474.0,0.43999
475.0,0.44203
476.0,0.44441
477.0,0.44642
478.0,0.44939
479.0,0.45154
480.0,0.45372
481.0,0.45640
482.0,0.45848
483.0,0.46094
484.0,0.46432
485.0,0.46671
486.0,0.46922
487.0,0.47234
488.0,0.47539
489.0,0.47780
490.0,0.48118
491.0,0.48407
492.0,0.48657
493.0,0.48974
494.0,0.49288
495.0,0.49545
496.0,0.49950
497.0,0.50265
498.0,0.50560
499.0,0.50831
500.0,0.51233
501.0,0.51540
502.0,0.51860
503.0,0.52205
504.0,0.52570
505.0,0.52931
506.0,0.53329
507.0,0.53680
508.0,0.53984
509.0,0.54408
510.0,0.54712
511.0,0.55085
512.0,0.55495
513.0,0.55849
514.0,0.56271
515.0,0.56564
516.0,0.56999
517.0,0.57334
518.0,0.57710
519.0,0.58113
520.0,0.58465
521.0,0.58928
522.0,0.59309
523.0,0.59691
524.0,0.60094
525.0,0.60482
526.0,0.60884
527.0,0.61239
528.0,0.61708
529.0,0.62109
530.0,0.62560
531.0,0.62927
532.0,0.63390
533.0,0.63746
534.0,0.64228
535.0,0.64610
536.0,0.65091
537.0,0.65464
538.0,0.65867
539.0,0.66386
540.0,0.66722
541.0,0.67156
542.0,0.67502
543.0,0.68005
544.0,0.68438
545.0,0.68846
546.0,0.69269
547.0,0.69711
548.0,0.70052
549.0,0.70571
550.0,0.70910
551.0,0.71351
552.0,0.71733
553.0,0.72206
554.0,0.72631
555.0,0.73021
556.0,0.73398
557.0,0.73818
558.0,0.74321
559.0,0.74725
560.0,0.75120
561.0,0.75643
562.0,0.75925
563.0,0.76348
564.0,0.76736
565.0,0.77136
566.0,0.77554
567.0,0.77921
568.0,0.78313
569.0,0.78671
570.0,0.78994
571.0,0.79485
572.0,0.79758
573.0,0.80127
574.0,0.80471
575.0,0.80871
576.0,0.81197
577.0,0.81579
578.0,0.81946
579.0,0.82251
580.0,0.82527
581.0,0.82900
582.0,0.83182
583.0,0.83470
584.0,0.83836
585.0,0.84109
586.0,0.84372
587.0,0.84677
588.0,0.84970
589.0,0.85227
590.0,0.85452
591.0,0.85770
592.0,0.85988
593.0,0.86264
594.0,0.86515
595.0,0.86628
596.0,0.86902
597.0,0.87142
598.0,0.87325
599.0,0.87463
600.0,0.87734
601.0,0.87894
602.0,0.88056
603.0,0.88235
604.0,0.88376
605.0,0.88566
606.0,0.88681
607.0,0.88871
608.0,0.89038
609.0,0.89114
610.0,0.89233
611.0,0.89333
612.0,0.89452
613.0,0.89519
614.0,0.89611
615.0,0.89666
616.0,0.89808
617.0,0.89883
618.0,0.89854
619.0,0.89945
620.0,0.89950
621.0,0.89984
622.0,0.90005
623.0,0.90051
624.0,0.90078
625.0,0.90069
626.0,0.90014
627.0,0.90008
628.0,0.90037
629.0,0.89998
630.0,0.89938
631.0,0.89888
632.0,0.89846
633.0,0.89723
634.0,0.89697
635.0,0.89547
636.0,0.89482
637.0,0.89325
638.0,0.89278
639.0,0.89091
640.0,0.89019
641.0,0.88903
642.0,0.88754
643.0,0.88608
644.0,0.88440
645.0,0.88280
646.0,0.88081
647.0,0.87823
648.0,0.87689
649.0,0.87432
650.0,0.87208
651.0,0.86934
652.0,0.86796
653.0,0.86482
654.0,0.86219
655.0,0.85963
656.0,0.85707
657.0,0.85420
658.0,0.85149
659.0,0.84845
660.0,0.84520
661.0,0.84260
662.0,0.83835
663.0,0.83560
664.0,0.83232
665.0,0.83011
666.0,0.82543
667.0,0.82280
668.0,0.81900
669.0,0.81464
670.0,0.81039
671.0,0.80640
672.0,0.80199
673.0,0.79826
674.0,0.79325
675.0,0.78875
676.0,0.78481
677.0,0.77978
678.0,0.77493
679.0,0.77006
680.0,0.76537
681.0,0.76022
682.0,0.75587
683.0,0.74969
684.0,0.74431
685.0,0.73964
686.0,0.73358
687.0,0.72825
688.0,0.72271
689.0,0.71729
690.0,0.71135
691.0,0.70545
692.0,0.70009
693.0,0.69371
694.0,0.68770
695.0,0.68021
696.0,0.67419
697.0,0.66831
698.0,0.66176
699.0,0.65564
700.0,0.64926
701.0,0.64344
702.0,0.63580
703.0,0.62955
704.0,0.62262
705.0,0.61550
706.0,0.60933
707.0,0.60280
708.0,0.59591
709.0,0.58985
710.0,0.58325
711.0,0.57656
712.0,0.56974
713.0,0.56316
714.0,0.55659
715.0,0.54988
716.0,0.54309
717.0,0.53611
718.0,0.52912
719.0,0.52385
720.0,0.51608
721.0,0.50974
722.0,0.50421
723.0,0.49716
724.0,0.49046
725.0,0.48450
726.0,0.47831
727.0,0.47204
728.0,0.46615
729.0,0.45984
730.0,0.45365
731.0,0.44780
732.0,0.44221
733.0,0.43566
734.0,0.43021
735.0,0.42490
736.0,0.41834
737.0,0.41305
738.0,0.40773
739.0,0.40219
740.0,0.39626
741.0,0.39066
742.0,0.38450
743.0,0.38018
744.0,0.37501
745.0,0.36960
746.0,0.36416
747.0,0.36028
748.0,0.35441
749.0,0.34979
750.0,0.34519
751.0,0.33996
752.0,0.33629
753.0,0.33075
754.0,0.32638
755.0,0.32275
756.0,0.31863
757.0,0.31411
758.0,0.30960
759.0,0.30637
760.0,0.30213
761.0,0.29869
762.0,0.29474
763.0,0.29081
764.0,0.28728
765.0,0.28324
766.0,0.28033
767.0,0.27770
768.0,0.27434
769.0,0.27122
770.0,0.26777
771.0,0.26397
772.0,0.26204
773.0,0.25877
774.0,0.25687
775.0,0.25298
776.0,0.25076
777.0,0.24835
778.0,0.24517
779.0,0.24216
780.0,0.24041
781.0,0.23804
782.0,0.23622
783.0,0.23356
784.0,0.23126
785.0,0.22963
786.0,0.22788
787.0,0.22566
788.0,0.22375
789.0,0.22190
790.0,0.21941
791.0,0.21802
792.0,0.21637
793.0,0.21512
794.0,0.21286
795.0,0.21110
796.0,0.20905
797.0,0.20833
798.0,0.20728
799.0,0.20409
800.0,0.20459
801.0,0.20237
802.0,0.20174
803.0,0.20003
804.0,0.19861
805.0,0.19860
806.0,0.19604
807.0,0.19589
808.0,0.19472
809.0,0.19326
810.0,0.19301
811.0,0.19194
812.0,0.19017
813.0,0.18922
814.0,0.18796
815.0,0.18707
816.0,0.18612
817.0,0.18463
818.0,0.18352
819.0,0.18308
820.0,0.18230
821.0,0.18094
822.0,0.17989
823.0,0.17842
824.0,0.17710
825.0,0.17719
826.0,0.17624
827.0,0.17575
828.0,0.17403
829.0,0.17426
830.0,0.17320
831.0,0.17078
832.0,0.17017
833.0,0.16987
834.0,0.16960
835.0,0.16844
836.0,0.16594
837.0,0.16790
838.0,0.16477
839.0,0.16501
840.0,0.16589
841.0,0.16380
842.0,0.16417
843.0,0.16254
844.0,0.16043
845.0,0.15980
846.0,0.16204
847.0,0.16144
848.0,0.16102
849.0,0.16072
850.0,0.16046
