"m-cresol PANI base-Cit.spc"
"Wavelength nm.","Abs."
208.9588377723971, 0.7447478813559323
213.88121350235008, 0.7461207627118644
218.80358923230307, 0.7456631355932204
223.72596496225609, 0.7461207627118644
228.64834069220908, 0.749324152542373
231.51972653468167, 0.7551207627118645
236.03190428713856, 0.763052966101695
240.95428001709158, 0.7657987288135594
243.41546788206807, 0.7612224576271187
245.87665574704457, 0.7557309322033899
247.92764563452496, 0.7484088983050848
250.38883349950146, 0.7404766949152544
253.26021934197408, 0.7328495762711865
255.72140720695057, 0.7255275423728814
257.77239709443097, 0.7172902542372882
260.64378293690356, 0.7108834745762712
263.1049708018801, 0.7035614406779662
265.56615866685655, 0.6976122881355933
268.027346531833, 0.6921207627118645
270.48853439680954, 0.6870868644067798
273.35992023928213, 0.6812902542372882
276.6415040592508, 0.6788495762711865
277.87209799173905, 0.6738156779661018
280.7434838342117, 0.6684766949152543
285.25566158666857, 0.6637478813559323
290.1780373166215, 0.6587139830508475
295.10041304657454, 0.655052966101695
300.0227887765276, 0.6518495762711864
304.9451645064805, 0.6486461864406781
309.86754023643357, 0.6491038135593221
314.7899159663865, 0.6504766949152543
319.71229169633955, 0.6513919491525424
324.6346674262926, 0.6536800847457628
329.5570431562455, 0.6568834745762713
334.4794188861986, 0.6605444915254238
339.4017946161515, 0.6642055084745764
344.32417034610455, 0.6678665254237288
349.2465460760575, 0.6715275423728815
354.16892180601053, 0.6738156779661018
359.0912975359636, 0.6761038135593221
364.0136732659165, 0.6779343220338984
368.93604899586956, 0.6793072033898306
373.8584247258225, 0.6811377118644069
378.78080045577553, 0.682052966101695
383.70317618572847, 0.6843411016949154
388.6255519156815, 0.6861716101694916
393.54792764563456, 0.688917372881356
398.4703033755875, 0.6916631355932203
403.39267910554054, 0.6944088983050848
408.31505483549347, 0.6971546610169492
413.2374305654465, 0.7008156779661018
418.15980629539945, 0.7053919491525424
423.0821820253525, 0.709510593220339
428.00455775530554, 0.7136292372881357
432.9269334852585, 0.7172902542372882
437.8493092152115, 0.7191207627118645
442.77168494516445, 0.7209512711864408
447.6940606751175, 0.7200360169491526
452.61643640507054, 0.7163750000000001
457.5388121350235, 0.7108834745762712
460, 0.7049343220338984
462.4611878649765, 0.6994427966101695
464.92237572995293, 0.6925783898305086
466.9733656174334, 0.6843411016949154
468.6141575274178, 0.6742733050847458
469.844751459906, 0.6770190677966103
471.0753453923942, 0.6696970338983051
472.3059393248825, 0.6642055084745764
474.767127189859, 0.6568834745762713
474.767127189859, 0.6513919491525424
477.22831505483543, 0.6440699152542373
478.45890898732375, 0.6385783898305085
479.2793049423159, 0.6318665254237289
480.9200968523003, 0.6275953389830509
482.1506907847885, 0.6221038135593221
483.3812847172767, 0.6166122881355933
484.611878649765, 0.6115783898305085
485.8424725822532, 0.601052966101695
487.0730665147415, 0.6037987288135593
488.30366044722973, 0.5919004237288137
489.53425437971794, 0.594646186440678
490.76484831220625, 0.5827478813559323
491.99544224469446, 0.5854936440677967
494.0464321321749, 0.5757309322033899
496.50761999715144, 0.5665783898305086
499.379005839624, 0.5589512711864407
501.42999572710437, 0.5507139830508475
503.8911835920809, 0.542781779661017
506.7625694345535, 0.5365275423728815
509.22375729953, 0.5296631355932204
511.6849451645064, 0.5223411016949153
514.1461330294829, 0.5168495762711864
516.6073208944595, 0.5109004237288136
519.068508759436, 0.5054088983050848
521.5296966244125, 0.49900211864406785
523.9908844893889, 0.49396822033898313
526.4520723543654, 0.48893432203389836
528.913260219342, 0.48390042372881364
531.7846460618146, 0.47810381355932213
536.2968238142714, 0.4720021186440679
539.168209656744, 0.4652902542372882
543.6803874092009, 0.4610190677966102
548.6027631391539, 0.45415466101694923
553.525138869107, 0.4486631355932204
558.4475145990599, 0.4440868644067797
563.369890329013, 0.44088347457627125
568.2922660589659, 0.4381377118644068
573.2146417889189, 0.4363072033898306
578.137017518872, 0.4353919491525424
583.0593932488249, 0.4353919491525424
587.981768978778, 0.4363072033898306
592.9041447087309, 0.43676483050847464
597.8265204386839, 0.439052966101695
602.7488961686369, 0.4427139830508475
607.6712718985899, 0.4463750000000001
612.593647628543, 0.4504936440677967
617.5160233584959, 0.45506991525423734
622.4383990884489, 0.4610190677966102
627.3607748184019, 0.46651059322033905
631.8729525708588, 0.4720021186440679
637.2055262783078, 0.4793241525423729
642.1279020082609, 0.48664618644067803
647.0502777382139, 0.49396822033898313
651.9726534681669, 0.5012902542372881
656.8950291981199, 0.5095275423728813
659.3562170630964, 0.5145614406779662
662.227602905569, 0.5208156779661017
666.7397806580259, 0.5287478813559323
670.4315624554906, 0.5333241525423729
672.072354365475, 0.5391207627118644
675.3539381854437, 0.5424766949152543
676.994730095428, 0.5482733050847458
681.5069078478849, 0.5562055084745763
686.4292835778379, 0.5653580508474577
691.3516593077909, 0.574510593220339
696.2740350377438, 0.5836631355932205
700.7862127902007, 0.5919004237288137
704.0677966101695, 0.5995275423728814
708.5799743626263, 0.607459745762712
712.2717561600912, 0.6120360169491526
713.9125480700754, 0.6178326271186442
718.4247258225324, 0.6239343220338984
723.3471015524854, 0.6330868644067797
728.2694772824384, 0.641324152542373
731.140863124911, 0.6471207627118645
735.6530408773679, 0.6532224576271187
740.1652186298247, 0.6599343220338983
745.4977923372738, 0.6678665254237288
750.4201680672269, 0.6742733050847458
755.3425437971798, 0.6806800847457628
760.2649195271329, 0.6861716101694916
765.1872952570859, 0.6925783898305086
770.1096709870388, 0.6989851694915254
775.0320467169919, 0.7035614406779662
779.9544224469448, 0.7081377118644069
784.8767981768979, 0.7122563559322035
789.7991739068508, 0.715917372881356
794.7215496368038, 0.7200360169491526
