"PANI-pss 7 dias (++ conc).spc"
"Wavelength nm.","Abs."
250.0,1.96600
251.0,1.97013
252.0,1.96988
253.0,1.97158
254.0,1.97722
255.0,1.97883
256.0,1.98165
257.0,1.98440
258.0,1.97272
259.0,1.97587
260.0,1.97499
261.0,1.97383
262.0,1.96769
263.0,1.95523
264.0,1.94854
265.0,1.93659
266.0,1.92319
267.0,1.91486
268.0,1.90303
269.0,1.87907
270.0,1.86262
271.0,1.84444
272.0,1.82774
273.0,1.80621
274.0,1.78464
275.0,1.75902
276.0,1.73388
277.0,1.71100
278.0,1.68491
279.0,1.66235
280.0,1.63934
281.0,1.61663
282.0,1.59213
283.0,1.56894
284.0,1.54573
285.0,1.52488
286.0,1.50270
287.0,1.48110
288.0,1.45953
289.0,1.44032
290.0,1.42084
291.0,1.40240
292.0,1.38602
293.0,1.36750
294.0,1.35153
295.0,1.33654
296.0,1.32333
297.0,1.31058
298.0,1.29823
299.0,1.29229
300.0,1.28144
301.0,1.27226
302.0,1.26466
303.0,1.25862
304.0,1.25571
305.0,1.25276
306.0,1.24912
307.0,1.24678
308.0,1.24438
309.0,1.24359
310.0,1.24279
311.0,1.24177
312.0,1.24342
313.0,1.24673
314.0,1.24560
315.0,1.24552
316.0,1.24874
317.0,1.24901
318.0,1.25292
319.0,1.25204
320.0,1.25595
321.0,1.25870
322.0,1.26247
323.0,1.26333
324.0,1.26872
325.0,1.27174
326.0,1.27491
327.0,1.27791
328.0,1.28058
329.0,1.28442
330.0,1.28791
331.0,1.29281
332.0,1.29583
333.0,1.29780
334.0,1.30271
335.0,1.30579
336.0,1.30724
337.0,1.31194
338.0,1.31323
339.0,1.31658
340.0,1.32065
341.0,1.32238
342.0,1.32418
343.0,1.32568
344.0,1.33019
345.0,1.33007
346.0,1.33204
347.0,1.33453
348.0,1.33612
349.0,1.33687
350.0,1.33852
351.0,1.33934
352.0,1.33931
353.0,1.34129
354.0,1.34067
355.0,1.34162
356.0,1.34179
357.0,1.34322
358.0,1.34214
359.0,1.34519
360.0,1.34467
361.0,1.34560
362.0,1.34700
363.0,1.34598
364.0,1.34774
365.0,1.34565
366.0,1.34658
367.0,1.34798
368.0,1.34646
369.0,1.34668
370.0,1.34721
371.0,1.34541
372.0,1.34540
373.0,1.34373
374.0,1.34431
375.0,1.34577
376.0,1.34463
377.0,1.34438
378.0,1.34454
379.0,1.34264
380.0,1.34312
381.0,1.34401
382.0,1.34324
383.0,1.34276
384.0,1.34164
385.0,1.34191
386.0,1.34205
387.0,1.34264
388.0,1.34292
389.0,1.34498
390.0,1.34545
391.0,1.34387
392.0,1.34355
393.0,1.34400
394.0,1.34161
395.0,1.34151
396.0,1.33989
397.0,1.33925
398.0,1.34023
399.0,1.34039
400.0,1.33986
401.0,1.34002
402.0,1.34303
403.0,1.34516
404.0,1.34212
405.0,1.34196
406.0,1.34146
407.0,1.34021
408.0,1.33968
409.0,1.34135
410.0,1.34065
411.0,1.34211
412.0,1.34342
413.0,1.34157
414.0,1.34213
415.0,1.33988
416.0,1.33968
417.0,1.33800
418.0,1.33693
419.0,1.33726
420.0,1.33802
421.0,1.34291
422.0,1.34274
423.0,1.34285
424.0,1.34310
425.0,1.34242
426.0,1.34121
427.0,1.34225
428.0,1.34081
429.0,1.34104
430.0,1.33851
431.0,1.33719
432.0,1.33732
433.0,1.33274
434.0,1.33093
435.0,1.32776
436.0,1.32169
437.0,1.31885
438.0,1.31307
439.0,1.30844
440.0,1.30123
441.0,1.29327
442.0,1.28335
443.0,1.27480
444.0,1.26490
445.0,1.25397
446.0,1.24310
447.0,1.23208
448.0,1.22150
449.0,1.20990
450.0,1.19852
451.0,1.18672
452.0,1.17309
453.0,1.15960
454.0,1.14379
455.0,1.12969
456.0,1.11490
457.0,1.09888
458.0,1.08315
459.0,1.06714
460.0,1.05078
461.0,1.03399
462.0,1.01784
463.0,1.00161
464.0,0.98499
465.0,0.96932
466.0,0.95303
467.0,0.93935
468.0,0.92491
469.0,0.91072
470.0,0.89744
471.0,0.88538
472.0,0.87259
473.0,0.86194
474.0,0.85176
475.0,0.84139
476.0,0.83233
477.0,0.82324
478.0,0.81465
479.0,0.80561
480.0,0.79759
481.0,0.79004
482.0,0.78288
483.0,0.77632
484.0,0.77043
485.0,0.76389
486.0,0.75706
487.0,0.75223
488.0,0.74768
489.0,0.74290
490.0,0.73855
491.0,0.73440
492.0,0.73035
493.0,0.72627
494.0,0.72212
495.0,0.71816
496.0,0.71382
497.0,0.70996
498.0,0.70624
499.0,0.70229
500.0,0.70026
501.0,0.69728
502.0,0.69397
503.0,0.69152
504.0,0.68925
505.0,0.68683
506.0,0.68455
507.0,0.68253
508.0,0.67979
509.0,0.67768
510.0,0.67531
511.0,0.67257
512.0,0.67052
513.0,0.66849
514.0,0.66613
515.0,0.66481
516.0,0.66274
517.0,0.66058
518.0,0.65817
519.0,0.65599
520.0,0.65471
521.0,0.65262
522.0,0.65166
523.0,0.65092
524.0,0.64970
525.0,0.64878
526.0,0.64717
527.0,0.64686
528.0,0.64637
529.0,0.64497
530.0,0.64341
531.0,0.64111
532.0,0.64084
533.0,0.64019
534.0,0.63887
535.0,0.63855
536.0,0.63912
537.0,0.63802
538.0,0.63656
539.0,0.63727
540.0,0.63626
541.0,0.63583
542.0,0.63549
543.0,0.63554
544.0,0.63526
545.0,0.63539
546.0,0.63530
547.0,0.63483
548.0,0.63498
549.0,0.63521
550.0,0.63601
551.0,0.63608
552.0,0.63651
553.0,0.63632
554.0,0.63751
555.0,0.63770
556.0,0.63852
557.0,0.63891
558.0,0.64010
559.0,0.64119
560.0,0.64200
561.0,0.64279
562.0,0.64325
563.0,0.64395
564.0,0.64559
565.0,0.64671
566.0,0.64817
567.0,0.64971
568.0,0.65010
569.0,0.65150
570.0,0.65365
571.0,0.65539
572.0,0.65633
573.0,0.65798
574.0,0.65945
575.0,0.66112
576.0,0.66167
577.0,0.66345
578.0,0.66547
579.0,0.66780
580.0,0.66947
581.0,0.67185
582.0,0.67438
583.0,0.67569
584.0,0.67796
585.0,0.68042
586.0,0.68294
587.0,0.68548
588.0,0.68768
589.0,0.68966
590.0,0.69225
591.0,0.69360
592.0,0.69587
593.0,0.69909
594.0,0.70224
595.0,0.70536
596.0,0.70875
597.0,0.71240
598.0,0.71461
599.0,0.71928
600.0,0.72331
601.0,0.72524
602.0,0.72920
603.0,0.73175
604.0,0.73553
605.0,0.73923
606.0,0.74434
607.0,0.74746
608.0,0.75191
609.0,0.75468
610.0,0.75848
611.0,0.76237
612.0,0.76595
613.0,0.77086
614.0,0.77589
615.0,0.78031
616.0,0.78364
617.0,0.78773
618.0,0.79328
619.0,0.79844
620.0,0.80317
621.0,0.80644
622.0,0.81186
623.0,0.81419
624.0,0.81889
625.0,0.82327
626.0,0.82872
627.0,0.83430
628.0,0.84128
629.0,0.84710
630.0,0.85268
631.0,0.85780
632.0,0.86472
633.0,0.87009
634.0,0.87525
635.0,0.88186
636.0,0.88828
637.0,0.89445
638.0,0.89999
639.0,0.90572
640.0,0.91085
641.0,0.91596
642.0,0.92173
643.0,0.92737
644.0,0.93350
645.0,0.93884
646.0,0.94572
647.0,0.95122
648.0,0.95752
649.0,0.96432
650.0,0.97225
651.0,0.97982
652.0,0.98638
653.0,0.99425
654.0,1.00030
655.0,1.00770
656.0,1.01388
657.0,1.02117
658.0,1.02937
659.0,1.03814
660.0,1.04614
661.0,1.05453
662.0,1.06178
663.0,1.06834
664.0,1.07697
665.0,1.08491
666.0,1.09090
667.0,1.09930
668.0,1.10743
669.0,1.11536
670.0,1.12398
671.0,1.13268
672.0,1.14242
673.0,1.14894
674.0,1.15507
675.0,1.16445
676.0,1.17317
677.0,1.17985
678.0,1.18856
679.0,1.19874
680.0,1.20608
681.0,1.21554
682.0,1.22463
683.0,1.23293
684.0,1.23965
685.0,1.24913
686.0,1.25653
687.0,1.26189
688.0,1.26886
689.0,1.27891
690.0,1.28679
691.0,1.29469
692.0,1.30550
693.0,1.31596
694.0,1.32416
695.0,1.33357
696.0,1.34462
697.0,1.35049
698.0,1.35669
699.0,1.36565
700.0,1.37297
701.0,1.38298
702.0,1.39195
703.0,1.40111
704.0,1.40743
705.0,1.41476
706.0,1.42145
707.0,1.43082
708.0,1.43801
709.0,1.44443
710.0,1.45077
711.0,1.46019
712.0,1.46758
713.0,1.47407
714.0,1.47877
715.0,1.48687
716.0,1.49413
717.0,1.50115
718.0,1.50661
719.0,1.51258
720.0,1.51831
721.0,1.52643
722.0,1.53310
723.0,1.53733
724.0,1.54152
725.0,1.55162
726.0,1.55516
727.0,1.56002
728.0,1.56920
729.0,1.57245
730.0,1.57966
731.0,1.58453
732.0,1.58966
733.0,1.59227
734.0,1.59773
735.0,1.60327
736.0,1.60998
737.0,1.61233
738.0,1.61767
739.0,1.62397
740.0,1.62657
741.0,1.62906
742.0,1.63024
743.0,1.63976
744.0,1.63758
745.0,1.64275
746.0,1.64419
747.0,1.64586
748.0,1.65234
749.0,1.65458
750.0,1.65744
751.0,1.65896
752.0,1.66219
753.0,1.66384
754.0,1.66395
755.0,1.66228
756.0,1.66435
757.0,1.66841
758.0,1.66938
759.0,1.67054
760.0,1.67239
761.0,1.67420
762.0,1.67771
763.0,1.67701
764.0,1.67468
765.0,1.67783
766.0,1.67921
767.0,1.68021
768.0,1.68244
769.0,1.68199
770.0,1.68341
771.0,1.68467
772.0,1.68441
773.0,1.68786
774.0,1.68786
775.0,1.68913
776.0,1.68660
777.0,1.68588
778.0,1.68420
779.0,1.68385
780.0,1.68559
781.0,1.68684
782.0,1.68807
783.0,1.68744
784.0,1.68618
785.0,1.68662
786.0,1.68256
787.0,1.68465
788.0,1.67967
789.0,1.68090
790.0,1.68162
791.0,1.68048
792.0,1.67854
793.0,1.67848
794.0,1.67575
795.0,1.67457
796.0,1.67299
797.0,1.67335
798.0,1.67080
799.0,1.66542
800.0,1.66834
801.0,1.66891
802.0,1.66480
803.0,1.66081
804.0,1.65729
805.0,1.65557
806.0,1.65608
807.0,1.65835
808.0,1.65543
809.0,1.65616
810.0,1.64973
811.0,1.65456
812.0,1.65354
813.0,1.64551
814.0,1.64265
815.0,1.64262
816.0,1.64179
817.0,1.64485
818.0,1.63909
819.0,1.63620
820.0,1.63364
821.0,1.63829
822.0,1.63724
823.0,1.64088
824.0,1.63278
825.0,1.63126
826.0,1.62681
827.0,1.62026
828.0,1.61550
829.0,1.61607
830.0,1.61661
831.0,1.60066
832.0,1.67018
833.0,1.62810
834.0,1.61290
835.0,1.61506
836.0,1.59727
837.0,1.63785
838.0,1.59982
839.0,1.62176
840.0,1.59949
841.0,1.61164
842.0,1.60251
843.0,1.56691
844.0,1.62346
845.0,1.57979
846.0,1.61040
847.0,1.58664
848.0,1.55637
849.0,1.58356
850.0,1.58160
