"PANI-pss 7 dias.spc"
"Wavelength nm.","Abs."
250.0,0.83110
251.0,0.83670
252.0,0.84217
253.0,0.84970
254.0,0.85583
255.0,0.86178
256.0,0.86646
257.0,0.86846
258.0,0.86866
259.0,0.87043
260.0,0.87237
261.0,0.87393
262.0,0.87285
263.0,0.86817
264.0,0.86163
265.0,0.85567
266.0,0.85040
267.0,0.84340
268.0,0.83585
269.0,0.82458
270.0,0.81187
271.0,0.80034
272.0,0.78853
273.0,0.77525
274.0,0.76016
275.0,0.74489
276.0,0.72897
277.0,0.71338
278.0,0.69601
279.0,0.68049
280.0,0.66491
281.0,0.64897
282.0,0.63292
283.0,0.61609
284.0,0.59945
285.0,0.58407
286.0,0.56753
287.0,0.55335
288.0,0.53560
289.0,0.52306
290.0,0.50773
291.0,0.49464
292.0,0.48082
293.0,0.46812
294.0,0.45687
295.0,0.44679
296.0,0.43617
297.0,0.42529
298.0,0.41669
299.0,0.41037
300.0,0.40207
301.0,0.39552
302.0,0.39023
303.0,0.38522
304.0,0.38168
305.0,0.37750
306.0,0.37424
307.0,0.37158
308.0,0.36977
309.0,0.36659
310.0,0.36592
311.0,0.36532
312.0,0.36435
313.0,0.36503
314.0,0.36390
315.0,0.36323
316.0,0.36323
317.0,0.36414
318.0,0.36473
319.0,0.36450
320.0,0.36605
321.0,0.36721
322.0,0.36754
323.0,0.36780
324.0,0.36905
325.0,0.37050
326.0,0.37022
327.0,0.37229
328.0,0.37386
329.0,0.37358
330.0,0.37496
331.0,0.37595
332.0,0.37757
333.0,0.37867
334.0,0.37906
335.0,0.38109
336.0,0.38194
337.0,0.38287
338.0,0.38391
339.0,0.38463
340.0,0.38527
341.0,0.38674
342.0,0.38660
343.0,0.38784
344.0,0.38927
345.0,0.38936
346.0,0.38982
347.0,0.39071
348.0,0.39090
349.0,0.39159
350.0,0.39158
351.0,0.39222
352.0,0.39243
353.0,0.39280
354.0,0.39251
355.0,0.39318
356.0,0.39357
357.0,0.39335
358.0,0.39281
359.0,0.39298
360.0,0.39343
361.0,0.39304
362.0,0.39363
363.0,0.39343
364.0,0.39385
365.0,0.39366
366.0,0.39307
367.0,0.39347
368.0,0.39323
369.0,0.39257
370.0,0.39310
371.0,0.39284
372.0,0.39211
373.0,0.39236
374.0,0.39204
375.0,0.39213
376.0,0.39175
377.0,0.39213
378.0,0.39105
379.0,0.39060
380.0,0.39049
381.0,0.39056
382.0,0.39143
383.0,0.39105
384.0,0.39016
385.0,0.39034
386.0,0.39001
387.0,0.39033
388.0,0.38939
389.0,0.39002
390.0,0.38943
391.0,0.38932
392.0,0.38943
393.0,0.38956
394.0,0.38924
395.0,0.38849
396.0,0.38908
397.0,0.38903
398.0,0.38856
399.0,0.38861
400.0,0.38849
401.0,0.38864
402.0,0.38806
403.0,0.38843
404.0,0.38907
405.0,0.38778
406.0,0.38882
407.0,0.38824
408.0,0.38813
409.0,0.38848
410.0,0.38775
411.0,0.38809
412.0,0.38834
413.0,0.38800
414.0,0.38823
415.0,0.38753
416.0,0.38767
417.0,0.38715
418.0,0.38655
419.0,0.38746
420.0,0.38684
421.0,0.38696
422.0,0.38691
423.0,0.38597
424.0,0.38644
425.0,0.38634
426.0,0.38593
427.0,0.38616
428.0,0.38533
429.0,0.38574
430.0,0.38450
431.0,0.38407
432.0,0.38428
433.0,0.38321
434.0,0.38259
435.0,0.38066
436.0,0.37921
437.0,0.37803
438.0,0.37547
439.0,0.37396
440.0,0.37133
441.0,0.36836
442.0,0.36552
443.0,0.36275
444.0,0.35947
445.0,0.35580
446.0,0.35227
447.0,0.34904
448.0,0.34507
449.0,0.34078
450.0,0.33679
451.0,0.33193
452.0,0.32776
453.0,0.32306
454.0,0.31795
455.0,0.31320
456.0,0.30774
457.0,0.30269
458.0,0.29796
459.0,0.29269
460.0,0.28757
461.0,0.28205
462.0,0.27657
463.0,0.27148
464.0,0.26654
465.0,0.26222
466.0,0.25666
467.0,0.25259
468.0,0.24804
469.0,0.24320
470.0,0.23910
471.0,0.23596
472.0,0.23157
473.0,0.22821
474.0,0.22509
475.0,0.22180
476.0,0.21874
477.0,0.21638
478.0,0.21343
479.0,0.21062
480.0,0.20847
481.0,0.20644
482.0,0.20424
483.0,0.20261
484.0,0.20046
485.0,0.19837
486.0,0.19670
487.0,0.19509
488.0,0.19341
489.0,0.19171
490.0,0.19094
491.0,0.18936
492.0,0.18791
493.0,0.18693
494.0,0.18630
495.0,0.18425
496.0,0.18325
497.0,0.18212
498.0,0.18101
499.0,0.18019
500.0,0.17938
501.0,0.17888
502.0,0.17742
503.0,0.17672
504.0,0.17511
505.0,0.17497
506.0,0.17418
507.0,0.17328
508.0,0.17222
509.0,0.17137
510.0,0.17113
511.0,0.16998
512.0,0.16964
513.0,0.16925
514.0,0.16779
515.0,0.16730
516.0,0.16703
517.0,0.16641
518.0,0.16623
519.0,0.16534
520.0,0.16509
521.0,0.16404
522.0,0.16387
523.0,0.16383
524.0,0.16326
525.0,0.16276
526.0,0.16206
527.0,0.16226
528.0,0.16159
529.0,0.16110
530.0,0.16035
531.0,0.16008
532.0,0.15992
533.0,0.15924
534.0,0.15880
535.0,0.15860
536.0,0.15891
537.0,0.15865
538.0,0.15824
539.0,0.15826
540.0,0.15825
541.0,0.15741
542.0,0.15708
543.0,0.15710
544.0,0.15707
545.0,0.15688
546.0,0.15719
547.0,0.15659
548.0,0.15653
549.0,0.15681
550.0,0.15645
551.0,0.15639
552.0,0.15650
553.0,0.15663
554.0,0.15664
555.0,0.15646
556.0,0.15677
557.0,0.15668
558.0,0.15691
559.0,0.15722
560.0,0.15720
561.0,0.15715
562.0,0.15764
563.0,0.15773
564.0,0.15776
565.0,0.15806
566.0,0.15856
567.0,0.15927
568.0,0.15925
569.0,0.15948
570.0,0.15989
571.0,0.16031
572.0,0.16051
573.0,0.16095
574.0,0.16121
575.0,0.16216
576.0,0.16161
577.0,0.16208
578.0,0.16261
579.0,0.16343
580.0,0.16368
581.0,0.16455
582.0,0.16554
583.0,0.16533
584.0,0.16627
585.0,0.16673
586.0,0.16697
587.0,0.16775
588.0,0.16872
589.0,0.16935
590.0,0.17003
591.0,0.17039
592.0,0.17102
593.0,0.17204
594.0,0.17241
595.0,0.17347
596.0,0.17457
597.0,0.17557
598.0,0.17539
599.0,0.17737
600.0,0.17807
601.0,0.17842
602.0,0.17932
603.0,0.18067
604.0,0.18145
605.0,0.18177
606.0,0.18338
607.0,0.18459
608.0,0.18598
609.0,0.18688
610.0,0.18796
611.0,0.18875
612.0,0.19016
613.0,0.19115
614.0,0.19228
615.0,0.19376
616.0,0.19439
617.0,0.19593
618.0,0.19719
619.0,0.19858
620.0,0.19991
621.0,0.20082
622.0,0.20283
623.0,0.20390
624.0,0.20572
625.0,0.20682
626.0,0.20857
627.0,0.20974
628.0,0.21128
629.0,0.21324
630.0,0.21452
631.0,0.21595
632.0,0.21826
633.0,0.21974
634.0,0.22075
635.0,0.22251
636.0,0.22468
637.0,0.22639
638.0,0.22816
639.0,0.23009
640.0,0.23224
641.0,0.23408
642.0,0.23606
643.0,0.23752
644.0,0.23944
645.0,0.24164
646.0,0.24397
647.0,0.24606
648.0,0.24830
649.0,0.25036
650.0,0.25252
651.0,0.25529
652.0,0.25689
653.0,0.25927
654.0,0.26146
655.0,0.26469
656.0,0.26666
657.0,0.26897
658.0,0.27183
659.0,0.27470
660.0,0.27683
661.0,0.27951
662.0,0.28240
663.0,0.28483
664.0,0.28709
665.0,0.28982
666.0,0.29198
667.0,0.29436
668.0,0.29723
669.0,0.29975
670.0,0.30191
671.0,0.30512
672.0,0.30812
673.0,0.31059
674.0,0.31358
675.0,0.31622
676.0,0.31829
677.0,0.32210
678.0,0.32479
679.0,0.32824
680.0,0.33035
681.0,0.33378
682.0,0.33670
683.0,0.34033
684.0,0.34329
685.0,0.34579
686.0,0.34903
687.0,0.35137
688.0,0.35416
689.0,0.35736
690.0,0.36059
691.0,0.36335
692.0,0.36614
693.0,0.36994
694.0,0.37297
695.0,0.37577
696.0,0.37923
697.0,0.38207
698.0,0.38492
699.0,0.38838
700.0,0.39099
701.0,0.39402
702.0,0.39708
703.0,0.40036
704.0,0.40243
705.0,0.40557
706.0,0.40825
707.0,0.41186
708.0,0.41405
709.0,0.41747
710.0,0.41991
711.0,0.42236
712.0,0.42544
713.0,0.42860
714.0,0.43121
715.0,0.43319
716.0,0.43644
717.0,0.43934
718.0,0.44130
719.0,0.44362
720.0,0.44649
721.0,0.44874
722.0,0.45184
723.0,0.45356
724.0,0.45630
725.0,0.45852
726.0,0.46132
727.0,0.46314
728.0,0.46624
729.0,0.46843
730.0,0.47107
731.0,0.47283
732.0,0.47508
733.0,0.47763
734.0,0.47945
735.0,0.48131
736.0,0.48369
737.0,0.48467
738.0,0.48692
739.0,0.48882
740.0,0.48963
741.0,0.49131
742.0,0.49275
743.0,0.49397
744.0,0.49522
745.0,0.49707
746.0,0.49795
747.0,0.49943
748.0,0.50026
749.0,0.50120
750.0,0.50262
751.0,0.50293
752.0,0.50407
753.0,0.50432
754.0,0.50514
755.0,0.50589
756.0,0.50721
757.0,0.50716
758.0,0.50839
759.0,0.50822
760.0,0.50878
761.0,0.50874
762.0,0.50987
763.0,0.51094
764.0,0.51074
765.0,0.51026
766.0,0.51044
767.0,0.51112
768.0,0.51123
769.0,0.51257
770.0,0.51250
771.0,0.51280
772.0,0.51211
773.0,0.51217
774.0,0.51236
775.0,0.51217
776.0,0.51193
777.0,0.51273
778.0,0.51168
779.0,0.51146
780.0,0.51208
781.0,0.51107
782.0,0.51114
783.0,0.51116
784.0,0.51006
785.0,0.50946
786.0,0.50920
787.0,0.50961
788.0,0.50957
789.0,0.50929
790.0,0.50785
791.0,0.50865
792.0,0.50709
793.0,0.50698
794.0,0.50660
795.0,0.50537
796.0,0.50429
797.0,0.50551
798.0,0.50455
799.0,0.50293
800.0,0.50376
801.0,0.50787
802.0,0.50615
803.0,0.50572
804.0,0.50577
805.0,0.50480
806.0,0.50435
807.0,0.50278
808.0,0.50279
809.0,0.50236
810.0,0.50039
811.0,0.50092
812.0,0.50073
813.0,0.49996
814.0,0.49887
815.0,0.49850
816.0,0.49776
817.0,0.49720
818.0,0.49693
819.0,0.49593
820.0,0.49494
821.0,0.49513
822.0,0.49384
823.0,0.49330
824.0,0.49307
825.0,0.49278
826.0,0.49198
827.0,0.49150
828.0,0.49110
829.0,0.49048
830.0,0.49141
831.0,0.48991
832.0,0.49169
833.0,0.48906
834.0,0.48853
835.0,0.48793
836.0,0.49054
837.0,0.48864
838.0,0.48886
839.0,0.48838
840.0,0.48605
841.0,0.48542
842.0,0.48626
843.0,0.48525
844.0,0.48237
845.0,0.48100
846.0,0.48230
847.0,0.48405
848.0,0.48183
849.0,0.47906
850.0,0.47829
