"pss.spc"
"Wavelength nm.","Abs."
250.0,5.19788
251.0,4.25085
252.0,6.00000
253.0,4.66931
254.0,6.00000
255.0,6.00000
256.0,4.49191
257.0,4.82838
258.0,4.39062
259.0,5.11407
260.0,4.67276
261.0,6.00000
262.0,6.00000
263.0,6.00000
264.0,6.00000
265.0,6.00000
266.0,3.97748
267.0,4.05620
268.0,4.26700
269.0,4.41426
270.0,6.00000
271.0,4.42186
272.0,6.00000
273.0,4.54045
274.0,3.52943
275.0,2.92989
276.0,2.44444
277.0,2.05907
278.0,1.76846
279.0,1.58502
280.0,1.49504
281.0,1.47544
282.0,1.49192
283.0,1.50751
284.0,1.44916
285.0,1.30152
286.0,1.13424
287.0,1.00073
288.0,0.89040
289.0,0.81726
290.0,0.77850
291.0,0.78900
292.0,0.85174
293.0,0.92310
294.0,0.85499
295.0,0.66497
296.0,0.48798
297.0,0.36207
298.0,0.28548
299.0,0.24063
300.0,0.21058
301.0,0.18634
302.0,0.17153
303.0,0.16072
304.0,0.15247
305.0,0.14618
306.0,0.14108
307.0,0.13710
308.0,0.13419
309.0,0.13024
310.0,0.12773
311.0,0.12582
312.0,0.12345
313.0,0.12240
314.0,0.11991
315.0,0.11848
316.0,0.11752
317.0,0.11566
318.0,0.11560
319.0,0.11348
320.0,0.11269
321.0,0.11182
322.0,0.11109
323.0,0.10960
324.0,0.10899
325.0,0.10826
326.0,0.10609
327.0,0.10546
328.0,0.10508
329.0,0.10398
330.0,0.10275
331.0,0.10220
332.0,0.10167
333.0,0.10027
334.0,0.09948
335.0,0.09966
336.0,0.09856
337.0,0.09794
338.0,0.09756
339.0,0.09647
340.0,0.09504
341.0,0.09539
342.0,0.09390
343.0,0.09301
344.0,0.09291
345.0,0.09251
346.0,0.09180
347.0,0.09074
348.0,0.09005
349.0,0.08971
350.0,0.08859
351.0,0.08778
352.0,0.08708
353.0,0.08656
354.0,0.08600
355.0,0.08544
356.0,0.08460
357.0,0.08368
358.0,0.08281
359.0,0.08247
360.0,0.08093
361.0,0.08151
362.0,0.08091
363.0,0.07982
364.0,0.07873
365.0,0.07879
366.0,0.07776
367.0,0.07709
368.0,0.07618
369.0,0.07555
370.0,0.07522
371.0,0.07423
372.0,0.07343
373.0,0.07274
374.0,0.07222
375.0,0.07158
376.0,0.07052
377.0,0.06960
378.0,0.06943
379.0,0.06824
380.0,0.06874
381.0,0.06739
382.0,0.06709
383.0,0.06634
384.0,0.06551
385.0,0.06478
386.0,0.06406
387.0,0.06370
388.0,0.06301
389.0,0.06269
390.0,0.06186
391.0,0.06149
392.0,0.06177
393.0,0.06114
394.0,0.06021
395.0,0.06015
396.0,0.05985
397.0,0.05941
398.0,0.05962
399.0,0.05908
400.0,0.05881
401.0,0.05865
402.0,0.05890
403.0,0.05837
404.0,0.05839
405.0,0.05778
406.0,0.05775
407.0,0.05767
408.0,0.05699
409.0,0.05752
410.0,0.05684
411.0,0.05712
412.0,0.05650
413.0,0.05678
414.0,0.05674
415.0,0.05622
416.0,0.05603
417.0,0.05571
418.0,0.05534
419.0,0.05589
420.0,0.05561
421.0,0.05519
422.0,0.05502
423.0,0.05412
424.0,0.05474
425.0,0.05439
426.0,0.05434
427.0,0.05452
428.0,0.05379
429.0,0.05415
430.0,0.05314
431.0,0.05369
432.0,0.05434
433.0,0.05385
434.0,0.05371
435.0,0.05325
436.0,0.05288
437.0,0.05304
438.0,0.05227
439.0,0.05325
440.0,0.05217
441.0,0.05172
442.0,0.05179
443.0,0.05258
444.0,0.05260
445.0,0.05105
446.0,0.05158
447.0,0.05138
448.0,0.05101
449.0,0.05056
450.0,0.05019
451.0,0.05025
452.0,0.05030
453.0,0.05039
454.0,0.04981
455.0,0.04912
456.0,0.04913
457.0,0.04885
458.0,0.04912
459.0,0.04890
460.0,0.04894
461.0,0.04848
462.0,0.04868
463.0,0.04799
464.0,0.04826
465.0,0.04842
466.0,0.04751
467.0,0.04826
468.0,0.04769
469.0,0.04726
470.0,0.04735
471.0,0.04802
472.0,0.04726
473.0,0.04683
474.0,0.04707
475.0,0.04650
476.0,0.04642
477.0,0.04685
478.0,0.04648
479.0,0.04584
480.0,0.04633
481.0,0.04636
482.0,0.04654
483.0,0.04631
484.0,0.04631
485.0,0.04595
486.0,0.04590
487.0,0.04565
488.0,0.04551
489.0,0.04583
490.0,0.04569
491.0,0.04520
492.0,0.04561
493.0,0.04539
494.0,0.04589
495.0,0.04507
496.0,0.04549
497.0,0.04511
498.0,0.04490
499.0,0.04535
500.0,0.04533
501.0,0.04548
502.0,0.04510
503.0,0.04512
504.0,0.04481
505.0,0.04507
506.0,0.04469
507.0,0.04478
508.0,0.04438
509.0,0.04464
510.0,0.04490
511.0,0.04427
512.0,0.04478
513.0,0.04478
514.0,0.04428
515.0,0.04431
516.0,0.04440
517.0,0.04451
518.0,0.04476
519.0,0.04479
520.0,0.04468
521.0,0.04468
522.0,0.04458
523.0,0.04449
524.0,0.04497
525.0,0.04445
526.0,0.04423
527.0,0.04454
528.0,0.04470
529.0,0.04453
530.0,0.04395
531.0,0.04368
532.0,0.04361
533.0,0.04338
534.0,0.04346
535.0,0.04392
536.0,0.04368
537.0,0.04384
538.0,0.04324
539.0,0.04390
540.0,0.04386
541.0,0.04336
542.0,0.04322
543.0,0.04295
544.0,0.04310
545.0,0.04356
546.0,0.04323
547.0,0.04318
548.0,0.04317
549.0,0.04306
550.0,0.04346
551.0,0.04319
552.0,0.04317
553.0,0.04327
554.0,0.04300
555.0,0.04301
556.0,0.04306
557.0,0.04318
558.0,0.04334
559.0,0.04278
560.0,0.04290
561.0,0.04305
562.0,0.04266
563.0,0.04287
564.0,0.04307
565.0,0.04267
566.0,0.04298
567.0,0.04349
568.0,0.04258
569.0,0.04285
570.0,0.04297
571.0,0.04302
572.0,0.04281
573.0,0.04307
574.0,0.04324
575.0,0.04327
576.0,0.04285
577.0,0.04282
578.0,0.04282
579.0,0.04276
580.0,0.04276
581.0,0.04309
582.0,0.04347
583.0,0.04299
584.0,0.04315
585.0,0.04320
586.0,0.04272
587.0,0.04288
588.0,0.04354
589.0,0.04376
590.0,0.04349
591.0,0.04306
592.0,0.04345
593.0,0.04358
594.0,0.04329
595.0,0.04400
596.0,0.04369
597.0,0.04414
598.0,0.04321
599.0,0.04381
600.0,0.04372
601.0,0.04320
602.0,0.04339
603.0,0.04371
604.0,0.04391
605.0,0.04347
606.0,0.04355
607.0,0.04384
608.0,0.04409
609.0,0.04416
610.0,0.04392
611.0,0.04348
612.0,0.04405
613.0,0.04368
614.0,0.04380
615.0,0.04389
616.0,0.04378
617.0,0.04376
618.0,0.04414
619.0,0.04405
620.0,0.04408
621.0,0.04337
622.0,0.04446
623.0,0.04354
624.0,0.04414
625.0,0.04385
626.0,0.04435
627.0,0.04398
628.0,0.04396
629.0,0.04404
630.0,0.04414
631.0,0.04403
632.0,0.04438
633.0,0.04417
634.0,0.04369
635.0,0.04364
636.0,0.04420
637.0,0.04426
638.0,0.04389
639.0,0.04354
640.0,0.04448
641.0,0.04427
642.0,0.04433
643.0,0.04394
644.0,0.04415
645.0,0.04463
646.0,0.04451
647.0,0.04470
648.0,0.04465
649.0,0.04427
650.0,0.04454
651.0,0.04475
652.0,0.04457
653.0,0.04436
654.0,0.04441
655.0,0.04528
656.0,0.04485
657.0,0.04464
658.0,0.04471
659.0,0.04456
660.0,0.04476
661.0,0.04519
662.0,0.04533
663.0,0.04505
664.0,0.04515
665.0,0.04500
666.0,0.04525
667.0,0.04511
668.0,0.04532
669.0,0.04504
670.0,0.04457
671.0,0.04522
672.0,0.04582
673.0,0.04537
674.0,0.04497
675.0,0.04540
676.0,0.04485
677.0,0.04577
678.0,0.04562
679.0,0.04608
680.0,0.04513
681.0,0.04538
682.0,0.04550
683.0,0.04580
684.0,0.04596
685.0,0.04582
686.0,0.04587
687.0,0.04563
688.0,0.04601
689.0,0.04599
690.0,0.04577
691.0,0.04583
692.0,0.04530
693.0,0.04667
694.0,0.04575
695.0,0.04607
696.0,0.04667
697.0,0.04643
698.0,0.04666
699.0,0.04707
700.0,0.04660
701.0,0.04646
702.0,0.04688
703.0,0.04707
704.0,0.04647
705.0,0.04673
706.0,0.04740
707.0,0.04779
708.0,0.04756
709.0,0.04789
710.0,0.04785
711.0,0.04817
712.0,0.04829
713.0,0.04887
714.0,0.04927
715.0,0.04879
716.0,0.04938
717.0,0.05009
718.0,0.04964
719.0,0.05002
720.0,0.05026
721.0,0.05083
722.0,0.05069
723.0,0.05058
724.0,0.05173
725.0,0.05147
726.0,0.05269
727.0,0.05202
728.0,0.05329
729.0,0.05334
730.0,0.05435
731.0,0.05431
732.0,0.05508
733.0,0.05520
734.0,0.05583
735.0,0.05632
736.0,0.05620
737.0,0.05686
738.0,0.05769
739.0,0.05741
740.0,0.05759
741.0,0.05827
742.0,0.05771
743.0,0.05822
744.0,0.05766
745.0,0.05864
746.0,0.05862
747.0,0.05882
748.0,0.05880
749.0,0.05862
750.0,0.05814
751.0,0.05852
752.0,0.05861
753.0,0.05890
754.0,0.05863
755.0,0.05894
756.0,0.05904
757.0,0.05891
758.0,0.05890
759.0,0.05917
760.0,0.05911
761.0,0.05911
762.0,0.05880
763.0,0.05949
764.0,0.05920
765.0,0.05851
766.0,0.05926
767.0,0.05893
768.0,0.05928
769.0,0.05961
770.0,0.05988
771.0,0.05949
772.0,0.05902
773.0,0.05919
774.0,0.05912
775.0,0.05933
776.0,0.05840
777.0,0.05865
778.0,0.05883
779.0,0.05871
780.0,0.05867
781.0,0.05874
782.0,0.05917
783.0,0.05914
784.0,0.05905
785.0,0.05895
786.0,0.05866
787.0,0.05905
788.0,0.05890
789.0,0.05933
790.0,0.05855
791.0,0.05881
792.0,0.05779
793.0,0.05881
794.0,0.05874
795.0,0.05814
796.0,0.05822
797.0,0.05850
798.0,0.05834
799.0,0.05708
800.0,0.05805
801.0,0.06084
802.0,0.06160
803.0,0.06008
804.0,0.06141
805.0,0.06177
806.0,0.06190
807.0,0.06064
808.0,0.06101
809.0,0.06084
810.0,0.06049
811.0,0.06094
812.0,0.06104
813.0,0.06046
814.0,0.06127
815.0,0.06137
816.0,0.06096
817.0,0.06196
818.0,0.06135
819.0,0.06138
820.0,0.06126
821.0,0.06165
822.0,0.06165
823.0,0.06268
824.0,0.06215
825.0,0.06284
826.0,0.06317
827.0,0.06376
828.0,0.06383
829.0,0.06392
830.0,0.06531
831.0,0.06494
832.0,0.06737
833.0,0.06350
834.0,0.06614
835.0,0.06572
836.0,0.06667
837.0,0.06670
838.0,0.06719
839.0,0.06814
840.0,0.06954
841.0,0.06952
842.0,0.06861
843.0,0.06612
844.0,0.06868
845.0,0.06635
846.0,0.06780
847.0,0.06812
848.0,0.06843
849.0,0.06888
850.0,0.06833
