"m-cresol PANI base-H3PO4.spc"
"Wavelength nm.","Abs."
250.0,5.29859
251.0,6.00000
252.0,6.00000
253.0,6.00000
254.0,6.00000
255.0,6.00000
256.0,6.00000
257.0,6.00000
258.0,6.00000
259.0,6.00000
260.0,6.00000
261.0,6.00000
262.0,6.00000
263.0,6.00000
264.0,6.00000
265.0,6.00000
266.0,6.00000
267.0,6.00000
268.0,6.00000
269.0,6.00000
270.0,6.00000
271.0,6.00000
272.0,6.00000
273.0,6.00000
274.0,6.00000
275.0,6.00000
276.0,6.00000
277.0,6.00000
278.0,6.00000
279.0,6.00000
280.0,5.46839
281.0,6.00000
282.0,4.61730
283.0,6.00000
284.0,6.00000
285.0,4.63114
286.0,4.14297
287.0,6.00000
288.0,4.50727
289.0,6.00000
290.0,6.00000
291.0,6.00000
292.0,4.80756
293.0,4.45413
294.0,6.00000
295.0,4.57043
296.0,4.83357
297.0,6.00000
298.0,4.56003
299.0,6.00000
300.0,6.00000
301.0,3.97209
302.0,6.00000
303.0,4.29796
304.0,6.00000
305.0,6.00000
306.0,4.64323
307.0,6.00000
308.0,4.22844
309.0,4.13746
310.0,6.00000
311.0,3.95003
312.0,4.55770
313.0,4.07461
314.0,3.74201
315.0,3.81942
316.0,3.76707
317.0,3.57907
318.0,3.45366
319.0,3.53234
320.0,3.36730
321.0,3.45352
322.0,3.22642
323.0,3.28020
324.0,3.24650
325.0,3.13537
326.0,3.15426
327.0,3.04280
328.0,2.99196
329.0,2.89054
330.0,2.90999
331.0,2.85121
332.0,2.81157
333.0,2.77901
334.0,2.73959
335.0,2.70071
336.0,2.68740
337.0,2.65312
338.0,2.62808
339.0,2.61389
340.0,2.56904
341.0,2.54567
342.0,2.51684
343.0,2.48633
344.0,2.46986
345.0,2.43483
346.0,2.41963
347.0,2.39163
348.0,2.36725
349.0,2.34073
350.0,2.31161
351.0,2.29040
352.0,2.25888
353.0,2.23857
354.0,2.20740
355.0,2.18195
356.0,2.15785
357.0,2.13226
358.0,2.10220
359.0,2.07627
360.0,2.04825
361.0,2.02509
362.0,2.00032
363.0,1.97929
364.0,1.95280
365.0,1.92761
366.0,1.89911
367.0,1.87708
368.0,1.85324
369.0,1.82814
370.0,1.80960
371.0,1.78548
372.0,1.76499
373.0,1.74225
374.0,1.72061
375.0,1.70200
376.0,1.68210
377.0,1.66352
378.0,1.64581
379.0,1.62798
380.0,1.60987
381.0,1.59195
382.0,1.57668
383.0,1.55875
384.0,1.54230
385.0,1.52341
386.0,1.50737
387.0,1.49067
388.0,1.47635
389.0,1.45856
390.0,1.44190
391.0,1.42732
392.0,1.41266
393.0,1.39601
394.0,1.38250
395.0,1.36913
396.0,1.35515
397.0,1.34237
398.0,1.33142
399.0,1.32245
400.0,1.31216
401.0,1.30483
402.0,1.29616
403.0,1.29022
404.0,1.28295
405.0,1.27724
406.0,1.27301
407.0,1.26654
408.0,1.26444
409.0,1.26084
410.0,1.25679
411.0,1.25352
412.0,1.25123
413.0,1.24777
414.0,1.24481
415.0,1.24175
416.0,1.23904
417.0,1.23746
418.0,1.23570
419.0,1.23292
420.0,1.23072
421.0,1.22843
422.0,1.22658
423.0,1.22273
424.0,1.22185
425.0,1.21998
426.0,1.21986
427.0,1.21773
428.0,1.21636
429.0,1.21534
430.0,1.21267
431.0,1.21128
432.0,1.20956
433.0,1.20877
434.0,1.20663
435.0,1.20539
436.0,1.20159
437.0,1.19893
438.0,1.19589
439.0,1.19236
440.0,1.18748
441.0,1.18229
442.0,1.17731
443.0,1.17064
444.0,1.16279
445.0,1.15563
446.0,1.14637
447.0,1.13833
448.0,1.12807
449.0,1.11643
450.0,1.10429
451.0,1.09396
452.0,1.08132
453.0,1.06919
454.0,1.05616
455.0,1.04310
456.0,1.02926
457.0,1.01675
458.0,1.00279
459.0,0.98981
460.0,0.97768
461.0,0.96503
462.0,0.95265
463.0,0.94135
464.0,0.93028
465.0,0.92015
466.0,0.90961
467.0,0.89998
468.0,0.89031
469.0,0.88218
470.0,0.87429
471.0,0.86588
472.0,0.85754
473.0,0.84970
474.0,0.84263
475.0,0.83478
476.0,0.82809
477.0,0.82113
478.0,0.81433
479.0,0.80727
480.0,0.80029
481.0,0.79464
482.0,0.78790
483.0,0.78193
484.0,0.77733
485.0,0.77181
486.0,0.76636
487.0,0.76104
488.0,0.75678
489.0,0.75217
490.0,0.74816
491.0,0.74429
492.0,0.74001
493.0,0.73605
494.0,0.73327
495.0,0.72969
496.0,0.72698
497.0,0.72392
498.0,0.72077
499.0,0.71739
500.0,0.71477
501.0,0.71242
502.0,0.70956
503.0,0.70705
504.0,0.70462
505.0,0.70255
506.0,0.70035
507.0,0.69809
508.0,0.69622
509.0,0.69398
510.0,0.69231
511.0,0.69055
512.0,0.68892
513.0,0.68741
514.0,0.68554
515.0,0.68372
516.0,0.68335
517.0,0.68223
518.0,0.68045
519.0,0.67911
520.0,0.67783
521.0,0.67781
522.0,0.67644
523.0,0.67539
524.0,0.67501
525.0,0.67334
526.0,0.67367
527.0,0.67214
528.0,0.67202
529.0,0.67211
530.0,0.67168
531.0,0.67124
532.0,0.67185
533.0,0.67171
534.0,0.67141
535.0,0.67133
536.0,0.67100
537.0,0.67164
538.0,0.67169
539.0,0.67255
540.0,0.67231
541.0,0.67305
542.0,0.67354
543.0,0.67396
544.0,0.67512
545.0,0.67562
546.0,0.67541
547.0,0.67749
548.0,0.67828
549.0,0.67979
550.0,0.68008
551.0,0.68129
552.0,0.68201
553.0,0.68453
554.0,0.68552
555.0,0.68705
556.0,0.68780
557.0,0.68958
558.0,0.69148
559.0,0.69297
560.0,0.69417
561.0,0.69657
562.0,0.69770
563.0,0.69998
564.0,0.70141
565.0,0.70288
566.0,0.70527
567.0,0.70707
568.0,0.70945
569.0,0.71130
570.0,0.71317
571.0,0.71629
572.0,0.71726
573.0,0.71942
574.0,0.72226
575.0,0.72486
576.0,0.72684
577.0,0.72940
578.0,0.73240
579.0,0.73431
580.0,0.73596
581.0,0.73916
582.0,0.74165
583.0,0.74410
584.0,0.74742
585.0,0.75041
586.0,0.75245
587.0,0.75502
588.0,0.75863
589.0,0.76054
590.0,0.76369
591.0,0.76664
592.0,0.76963
593.0,0.77233
594.0,0.77529
595.0,0.77793
596.0,0.78039
597.0,0.78321
598.0,0.78660
599.0,0.78912
600.0,0.79240
601.0,0.79502
602.0,0.79833
603.0,0.80075
604.0,0.80410
605.0,0.80632
606.0,0.80954
607.0,0.81258
608.0,0.81541
609.0,0.81791
610.0,0.82128
611.0,0.82325
612.0,0.82629
613.0,0.82955
614.0,0.83252
615.0,0.83430
616.0,0.83714
617.0,0.84006
618.0,0.84250
619.0,0.84510
620.0,0.84757
621.0,0.85027
622.0,0.85320
623.0,0.85549
624.0,0.85799
625.0,0.86042
626.0,0.86305
627.0,0.86590
628.0,0.86813
629.0,0.87029
630.0,0.87283
631.0,0.87518
632.0,0.87796
633.0,0.87965
634.0,0.88276
635.0,0.88337
636.0,0.88610
637.0,0.88808
638.0,0.89007
639.0,0.89198
640.0,0.89421
641.0,0.89660
642.0,0.89842
643.0,0.90008
644.0,0.90148
645.0,0.90306
646.0,0.90430
647.0,0.90623
648.0,0.90857
649.0,0.90869
650.0,0.91154
651.0,0.91237
652.0,0.91469
653.0,0.91556
654.0,0.91671
655.0,0.91773
656.0,0.91861
657.0,0.91997
658.0,0.92148
659.0,0.92250
660.0,0.92347
661.0,0.92459
662.0,0.92524
663.0,0.92626
664.0,0.92622
665.0,0.92815
666.0,0.92743
667.0,0.92954
668.0,0.92901
669.0,0.92943
670.0,0.92952
671.0,0.92966
672.0,0.92955
673.0,0.93005
674.0,0.92997
675.0,0.92998
676.0,0.93012
677.0,0.92994
678.0,0.92916
679.0,0.92884
680.0,0.92890
681.0,0.92794
682.0,0.92836
683.0,0.92742
684.0,0.92620
685.0,0.92548
686.0,0.92462
687.0,0.92414
688.0,0.92244
689.0,0.92231
690.0,0.92067
691.0,0.92048
692.0,0.91862
693.0,0.91792
694.0,0.91549
695.0,0.91401
696.0,0.91224
697.0,0.91136
698.0,0.90924
699.0,0.90855
700.0,0.90612
701.0,0.90480
702.0,0.90246
703.0,0.90104
704.0,0.89852
705.0,0.89635
706.0,0.89392
707.0,0.89222
708.0,0.89022
709.0,0.88792
710.0,0.88595
711.0,0.88326
712.0,0.88074
713.0,0.87846
714.0,0.87586
715.0,0.87351
716.0,0.87040
717.0,0.86615
718.0,0.86376
719.0,0.86081
720.0,0.85690
721.0,0.85348
722.0,0.85088
723.0,0.84664
724.0,0.84338
725.0,0.84028
726.0,0.83713
727.0,0.83458
728.0,0.83023
729.0,0.82768
730.0,0.82272
731.0,0.82028
732.0,0.81693
733.0,0.81343
734.0,0.80998
735.0,0.80683
736.0,0.80320
737.0,0.79949
738.0,0.79608
739.0,0.79273
740.0,0.78988
741.0,0.78502
742.0,0.78142
743.0,0.77824
744.0,0.77404
745.0,0.76950
746.0,0.76694
747.0,0.76347
748.0,0.75853
749.0,0.75464
750.0,0.75140
751.0,0.74754
752.0,0.74409
753.0,0.74005
754.0,0.73463
755.0,0.73232
756.0,0.72902
757.0,0.72525
758.0,0.72058
759.0,0.71794
760.0,0.71400
761.0,0.71015
762.0,0.70675
763.0,0.70222
764.0,0.69905
765.0,0.69487
766.0,0.69183
767.0,0.68738
768.0,0.68451
769.0,0.68081
770.0,0.67607
771.0,0.67223
772.0,0.67058
773.0,0.66662
774.0,0.66388
775.0,0.65936
776.0,0.65612
777.0,0.65201
778.0,0.64924
779.0,0.64545
780.0,0.64248
781.0,0.63922
782.0,0.63518
783.0,0.63229
784.0,0.62797
785.0,0.62557
786.0,0.62246
787.0,0.62027
788.0,0.61711
789.0,0.61353
790.0,0.61028
791.0,0.60736
792.0,0.60424
793.0,0.60233
794.0,0.59940
795.0,0.59557
796.0,0.59375
797.0,0.59146
798.0,0.58862
799.0,0.58496
800.0,0.58312
801.0,0.59002
802.0,0.58847
803.0,0.58502
804.0,0.58271
805.0,0.58088
806.0,0.57747
807.0,0.57622
808.0,0.57316
809.0,0.57168
810.0,0.56859
811.0,0.56680
812.0,0.56349
813.0,0.56204
814.0,0.55914
815.0,0.55786
816.0,0.55541
817.0,0.55398
818.0,0.55026
819.0,0.55026
820.0,0.54848
821.0,0.54584
822.0,0.54410
823.0,0.54146
824.0,0.53969
825.0,0.53895
826.0,0.53678
827.0,0.53526
828.0,0.53209
829.0,0.53169
830.0,0.52977
831.0,0.52548
832.0,0.53163
833.0,0.52954
834.0,0.52656
835.0,0.52190
836.0,0.52308
837.0,0.52347
838.0,0.51765
839.0,0.51911
840.0,0.51831
841.0,0.51868
842.0,0.51600
843.0,0.51215
844.0,0.51179
845.0,0.51191
846.0,0.51143
847.0,0.51323
848.0,0.50908
849.0,0.50790
850.0,0.50815
